 #  energy  x  y  z  sp  sm
       0.000000       0.034684       0.034346       0.000000       0.034091       0.034940
       0.000667       0.034697       0.034359       0.000000       0.034103       0.034953
       0.001333       0.034710       0.034371       0.000000       0.034115       0.034967
       0.002000       0.034723       0.034384       0.000000       0.034127       0.034980
       0.002667       0.034735       0.034397       0.000000       0.034140       0.034993
       0.003333       0.034748       0.034409       0.000000       0.034152       0.035006
       0.004000       0.034761       0.034422       0.000000       0.034164       0.035019
       0.004667       0.034773       0.034435       0.000000       0.034176       0.035032
       0.005333       0.034786       0.034448       0.000000       0.034189       0.035045
       0.006000       0.034799       0.034460       0.000000       0.034201       0.035058
       0.006667       0.034812       0.034473       0.000000       0.034213       0.035072
       0.007333       0.034824       0.034486       0.000000       0.034226       0.035085
       0.008000       0.034837       0.034499       0.000000       0.034238       0.035098
       0.008667       0.034850       0.034511       0.000000       0.034250       0.035111
       0.009333       0.034863       0.034524       0.000000       0.034263       0.035124
       0.010000       0.034875       0.034537       0.000000       0.034275       0.035138
       0.010667       0.034888       0.034550       0.000000       0.034287       0.035151
       0.011333       0.034901       0.034562       0.000000       0.034300       0.035164
       0.012000       0.034914       0.034575       0.000000       0.034312       0.035177
       0.012667       0.034927       0.034588       0.000000       0.034324       0.035191
       0.013333       0.034940       0.034601       0.000000       0.034337       0.035204
       0.014000       0.034952       0.034614       0.000000       0.034349       0.035217
       0.014667       0.034965       0.034626       0.000000       0.034362       0.035230
       0.015333       0.034978       0.034639       0.000000       0.034374       0.035244
       0.016000       0.034991       0.034652       0.000000       0.034386       0.035257
       0.016667       0.035004       0.034665       0.000000       0.034399       0.035270
       0.017333       0.035017       0.034678       0.000000       0.034411       0.035283
       0.018000       0.035029       0.034691       0.000000       0.034424       0.035297
       0.018667       0.035042       0.034704       0.000000       0.034436       0.035310
       0.019333       0.035055       0.034716       0.000000       0.034449       0.035323
       0.020000       0.035068       0.034729       0.000000       0.034461       0.035337
       0.020667       0.035081       0.034742       0.000000       0.034473       0.035350
       0.021333       0.035094       0.034755       0.000000       0.034486       0.035363
       0.022000       0.035107       0.034768       0.000000       0.034498       0.035377
       0.022667       0.035120       0.034781       0.000000       0.034511       0.035390
       0.023333       0.035133       0.034794       0.000000       0.034523       0.035404
       0.024000       0.035146       0.034807       0.000000       0.034536       0.035417
       0.024667       0.035159       0.034820       0.000000       0.034548       0.035430
       0.025333       0.035172       0.034833       0.000000       0.034561       0.035444
       0.026000       0.035185       0.034846       0.000000       0.034573       0.035457
       0.026667       0.035197       0.034859       0.000000       0.034586       0.035471
       0.027333       0.035210       0.034872       0.000000       0.034599       0.035484
       0.028000       0.035223       0.034885       0.000000       0.034611       0.035497
       0.028667       0.035236       0.034898       0.000000       0.034624       0.035511
       0.029333       0.035249       0.034911       0.000000       0.034636       0.035524
       0.030000       0.035262       0.034924       0.000000       0.034649       0.035538
       0.030667       0.035275       0.034937       0.000000       0.034661       0.035551
       0.031333       0.035289       0.034950       0.000000       0.034674       0.035565
       0.032000       0.035302       0.034963       0.000000       0.034686       0.035578
       0.032667       0.035315       0.034976       0.000000       0.034699       0.035592
       0.033333       0.035328       0.034989       0.000000       0.034712       0.035605
       0.034000       0.035341       0.035002       0.000000       0.034724       0.035619
       0.034667       0.035354       0.035015       0.000000       0.034737       0.035632
       0.035333       0.035367       0.035028       0.000000       0.034750       0.035646
       0.036000       0.035380       0.035041       0.000000       0.034762       0.035659
       0.036667       0.035393       0.035054       0.000000       0.034775       0.035673
       0.037333       0.035406       0.035067       0.000000       0.034787       0.035686
       0.038000       0.035419       0.035080       0.000000       0.034800       0.035700
       0.038667       0.035432       0.035094       0.000000       0.034813       0.035714
       0.039333       0.035445       0.035107       0.000000       0.034825       0.035727
       0.040000       0.035459       0.035120       0.000000       0.034838       0.035741
       0.040667       0.035472       0.035133       0.000000       0.034851       0.035754
       0.041333       0.035485       0.035146       0.000000       0.034863       0.035768
       0.042000       0.035498       0.035159       0.000000       0.034876       0.035781
       0.042667       0.035511       0.035172       0.000000       0.034889       0.035795
       0.043333       0.035524       0.035186       0.000000       0.034902       0.035809
       0.044000       0.035538       0.035199       0.000000       0.034914       0.035822
       0.044667       0.035551       0.035212       0.000000       0.034927       0.035836
       0.045333       0.035564       0.035225       0.000000       0.034940       0.035850
       0.046000       0.035577       0.035238       0.000000       0.034952       0.035863
       0.046667       0.035590       0.035252       0.000000       0.034965       0.035877
       0.047333       0.035604       0.035265       0.000000       0.034978       0.035891
       0.048000       0.035617       0.035278       0.000000       0.034991       0.035904
       0.048667       0.035630       0.035291       0.000000       0.035004       0.035918
       0.049333       0.035643       0.035304       0.000000       0.035016       0.035932
       0.050000       0.035657       0.035318       0.000000       0.035029       0.035946
       0.050667       0.035670       0.035331       0.000000       0.035042       0.035959
       0.051333       0.035683       0.035344       0.000000       0.035055       0.035973
       0.052000       0.035696       0.035357       0.000000       0.035067       0.035987
       0.052667       0.035710       0.035371       0.000000       0.035080       0.036000
       0.053333       0.035723       0.035384       0.000000       0.035093       0.036014
       0.054000       0.035736       0.035397       0.000000       0.035106       0.036028
       0.054667       0.035750       0.035411       0.000000       0.035119       0.036042
       0.055333       0.035763       0.035424       0.000000       0.035132       0.036056
       0.056000       0.035776       0.035437       0.000000       0.035144       0.036069
       0.056667       0.035789       0.035451       0.000000       0.035157       0.036083
       0.057333       0.035803       0.035464       0.000000       0.035170       0.036097
       0.058000       0.035816       0.035477       0.000000       0.035183       0.036111
       0.058667       0.035830       0.035491       0.000000       0.035196       0.036125
       0.059333       0.035843       0.035504       0.000000       0.035209       0.036138
       0.060000       0.035856       0.035517       0.000000       0.035222       0.036152
       0.060667       0.035870       0.035531       0.000000       0.035235       0.036166
       0.061333       0.035883       0.035544       0.000000       0.035248       0.036180
       0.062000       0.035896       0.035557       0.000000       0.035260       0.036194
       0.062667       0.035910       0.035571       0.000000       0.035273       0.036208
       0.063333       0.035923       0.035584       0.000000       0.035286       0.036222
       0.064000       0.035937       0.035598       0.000000       0.035299       0.036236
       0.064667       0.035950       0.035611       0.000000       0.035312       0.036249
       0.065333       0.035964       0.035625       0.000000       0.035325       0.036263
       0.066000       0.035977       0.035638       0.000000       0.035338       0.036277
       0.066667       0.035990       0.035651       0.000000       0.035351       0.036291
       0.067333       0.036004       0.035665       0.000000       0.035364       0.036305
       0.068000       0.036017       0.035678       0.000000       0.035377       0.036319
       0.068667       0.036031       0.035692       0.000000       0.035390       0.036333
       0.069333       0.036044       0.035705       0.000000       0.035403       0.036347
       0.070000       0.036058       0.035719       0.000000       0.035416       0.036361
       0.070667       0.036071       0.035732       0.000000       0.035429       0.036375
       0.071333       0.036085       0.035746       0.000000       0.035442       0.036389
       0.072000       0.036098       0.035759       0.000000       0.035455       0.036403
       0.072667       0.036112       0.035773       0.000000       0.035468       0.036417
       0.073333       0.036125       0.035786       0.000000       0.035481       0.036431
       0.074000       0.036139       0.035800       0.000000       0.035494       0.036445
       0.074667       0.036153       0.035814       0.000000       0.035507       0.036459
       0.075333       0.036166       0.035827       0.000000       0.035520       0.036473
       0.076000       0.036180       0.035841       0.000000       0.035534       0.036487
       0.076667       0.036193       0.035854       0.000000       0.035547       0.036501
       0.077333       0.036207       0.035868       0.000000       0.035560       0.036515
       0.078000       0.036220       0.035881       0.000000       0.035573       0.036529
       0.078667       0.036234       0.035895       0.000000       0.035586       0.036543
       0.079333       0.036248       0.035909       0.000000       0.035599       0.036558
       0.080000       0.036261       0.035922       0.000000       0.035612       0.036572
       0.080667       0.036275       0.035936       0.000000       0.035625       0.036586
       0.081333       0.036288       0.035950       0.000000       0.035639       0.036600
       0.082000       0.036302       0.035963       0.000000       0.035652       0.036614
       0.082667       0.036316       0.035977       0.000000       0.035665       0.036628
       0.083333       0.036329       0.035991       0.000000       0.035678       0.036642
       0.084000       0.036343       0.036004       0.000000       0.035691       0.036657
       0.084667       0.036357       0.036018       0.000000       0.035704       0.036671
       0.085333       0.036371       0.036032       0.000000       0.035718       0.036685
       0.086000       0.036384       0.036045       0.000000       0.035731       0.036699
       0.086667       0.036398       0.036059       0.000000       0.035744       0.036713
       0.087333       0.036412       0.036073       0.000000       0.035757       0.036728
       0.088000       0.036425       0.036086       0.000000       0.035770       0.036742
       0.088667       0.036439       0.036100       0.000000       0.035784       0.036756
       0.089333       0.036453       0.036114       0.000000       0.035797       0.036770
       0.090000       0.036467       0.036128       0.000000       0.035810       0.036784
       0.090667       0.036480       0.036141       0.000000       0.035823       0.036799
       0.091333       0.036494       0.036155       0.000000       0.035837       0.036813
       0.092000       0.036508       0.036169       0.000000       0.035850       0.036827
       0.092667       0.036522       0.036183       0.000000       0.035863       0.036842
       0.093333       0.036535       0.036197       0.000000       0.035876       0.036856
       0.094000       0.036549       0.036210       0.000000       0.035890       0.036870
       0.094667       0.036563       0.036224       0.000000       0.035903       0.036885
       0.095333       0.036577       0.036238       0.000000       0.035916       0.036899
       0.096000       0.036591       0.036252       0.000000       0.035930       0.036913
       0.096667       0.036605       0.036266       0.000000       0.035943       0.036927
       0.097333       0.036618       0.036279       0.000000       0.035956       0.036942
       0.098000       0.036632       0.036293       0.000000       0.035970       0.036956
       0.098667       0.036646       0.036307       0.000000       0.035983       0.036971
       0.099333       0.036660       0.036321       0.000000       0.035996       0.036985
       0.100000       0.036674       0.036335       0.000000       0.036010       0.036999
       0.100667       0.036688       0.036349       0.000000       0.036023       0.037014
       0.101333       0.036702       0.036363       0.000000       0.036037       0.037028
       0.102000       0.036715       0.036377       0.000000       0.036050       0.037042
       0.102667       0.036729       0.036390       0.000000       0.036063       0.037057
       0.103333       0.036743       0.036404       0.000000       0.036077       0.037071
       0.104000       0.036757       0.036418       0.000000       0.036090       0.037086
       0.104667       0.036771       0.036432       0.000000       0.036104       0.037100
       0.105333       0.036785       0.036446       0.000000       0.036117       0.037115
       0.106000       0.036799       0.036460       0.000000       0.036130       0.037129
       0.106667       0.036813       0.036474       0.000000       0.036144       0.037144
       0.107333       0.036827       0.036488       0.000000       0.036157       0.037158
       0.108000       0.036841       0.036502       0.000000       0.036171       0.037173
       0.108667       0.036855       0.036516       0.000000       0.036184       0.037187
       0.109333       0.036869       0.036530       0.000000       0.036198       0.037202
       0.110000       0.036883       0.036544       0.000000       0.036211       0.037216
       0.110667       0.036897       0.036558       0.000000       0.036225       0.037231
       0.111333       0.036911       0.036572       0.000000       0.036238       0.037245
       0.112000       0.036925       0.036586       0.000000       0.036252       0.037260
       0.112667       0.036939       0.036600       0.000000       0.036265       0.037274
       0.113333       0.036953       0.036614       0.000000       0.036279       0.037289
       0.114000       0.036967       0.036628       0.000000       0.036292       0.037304
       0.114667       0.036981       0.036642       0.000000       0.036306       0.037318
       0.115333       0.036995       0.036656       0.000000       0.036319       0.037333
       0.116000       0.037009       0.036671       0.000000       0.036333       0.037347
       0.116667       0.037024       0.036685       0.000000       0.036347       0.037362
       0.117333       0.037038       0.036699       0.000000       0.036360       0.037377
       0.118000       0.037052       0.036713       0.000000       0.036374       0.037391
       0.118667       0.037066       0.036727       0.000000       0.036387       0.037406
       0.119333       0.037080       0.036741       0.000000       0.036401       0.037421
       0.120000       0.037094       0.036755       0.000000       0.036414       0.037435
       0.120667       0.037108       0.036769       0.000000       0.036428       0.037450
       0.121333       0.037122       0.036784       0.000000       0.036442       0.037465
       0.122000       0.037137       0.036798       0.000000       0.036455       0.037479
       0.122667       0.037151       0.036812       0.000000       0.036469       0.037494
       0.123333       0.037165       0.036826       0.000000       0.036483       0.037509
       0.124000       0.037179       0.036840       0.000000       0.036496       0.037523
       0.124667       0.037193       0.036855       0.000000       0.036510       0.037538
       0.125333       0.037208       0.036869       0.000000       0.036524       0.037553
       0.126000       0.037222       0.036883       0.000000       0.036537       0.037568
       0.126667       0.037236       0.036897       0.000000       0.036551       0.037582
       0.127333       0.037250       0.036911       0.000000       0.036565       0.037597
       0.128000       0.037264       0.036926       0.000000       0.036578       0.037612
       0.128667       0.037279       0.036940       0.000000       0.036592       0.037627
       0.129333       0.037293       0.036954       0.000000       0.036606       0.037642
       0.130000       0.037307       0.036968       0.000000       0.036620       0.037656
       0.130667       0.037322       0.036983       0.000000       0.036633       0.037671
       0.131333       0.037336       0.036997       0.000000       0.036647       0.037686
       0.132000       0.037350       0.037011       0.000000       0.036661       0.037701
       0.132667       0.037364       0.037026       0.000000       0.036675       0.037716
       0.133333       0.037379       0.037040       0.000000       0.036688       0.037731
       0.134000       0.037393       0.037054       0.000000       0.036702       0.037746
       0.134667       0.037407       0.037069       0.000000       0.036716       0.037760
       0.135333       0.037422       0.037083       0.000000       0.036730       0.037775
       0.136000       0.037436       0.037097       0.000000       0.036744       0.037790
       0.136667       0.037450       0.037112       0.000000       0.036757       0.037805
       0.137333       0.037465       0.037126       0.000000       0.036771       0.037820
       0.138000       0.037479       0.037140       0.000000       0.036785       0.037835
       0.138667       0.037494       0.037155       0.000000       0.036799       0.037850
       0.139333       0.037508       0.037169       0.000000       0.036813       0.037865
       0.140000       0.037522       0.037184       0.000000       0.036827       0.037880
       0.140667       0.037537       0.037198       0.000000       0.036840       0.037895
       0.141333       0.037551       0.037213       0.000000       0.036854       0.037910
       0.142000       0.037566       0.037227       0.000000       0.036868       0.037925
       0.142667       0.037580       0.037241       0.000000       0.036882       0.037940
       0.143333       0.037595       0.037256       0.000000       0.036896       0.037955
       0.144000       0.037609       0.037270       0.000000       0.036910       0.037970
       0.144667       0.037623       0.037285       0.000000       0.036924       0.037985
       0.145333       0.037638       0.037299       0.000000       0.036938       0.038000
