 # energy sp sm
  0.0000000E+00  0.0000000E+00  0.0000000E+00
  6.6700001E-04  2.1749087E-11  1.7747176E-10
  1.3330000E-03  1.7375265E-10  1.4178222E-09
  2.0000001E-03  5.8736654E-10  4.7929354E-09
  2.6670001E-03  1.3940118E-09  1.1375256E-08
  3.3330000E-03  2.7232108E-09  2.2221734E-08
  4.0000002E-03  4.7112270E-09  3.8444362E-08
  4.6669999E-03  7.4893824E-09  6.1114882E-08
  5.3329999E-03  1.1184733E-08  9.1270138E-08
  6.0000001E-03  1.5942033E-08  1.3009145E-07
  6.6669998E-03  2.1890752E-08  1.7863550E-07
  7.3330002E-03  2.9153647E-08  2.3790430E-07
  8.0000004E-03  3.7887638E-08  3.0917826E-07
  8.6669996E-03  4.8218460E-08  3.9348376E-07
  9.3329996E-03  6.0262920E-08  4.9177413E-07
  9.9999998E-03  7.4193565E-08  6.0545807E-07
  1.0667000E-02  9.0130825E-08  7.3551735E-07
  1.1333000E-02  1.0818341E-07  8.8284133E-07
  1.2000000E-02  1.2854356E-07  1.0489977E-06
  1.2667000E-02  1.5132429E-07  1.2349085E-06
  1.3333000E-02  1.7662450E-07  1.4413829E-06
  1.4000000E-02  2.0465968E-07  1.6701774E-06
  1.4667000E-02  2.3553373E-07  1.9221427E-06
  1.5333000E-02  2.6933387E-07  2.1979913E-06
  1.6000001E-02  3.0630304E-07  2.4997003E-06
  1.6666999E-02  3.4653311E-07  2.8280281E-06
  1.7333001E-02  3.9009910E-07  3.1835830E-06
  1.7999999E-02  4.3727317E-07  3.5685860E-06
  1.8666999E-02  4.8813598E-07  3.9836978E-06
  1.9332999E-02  5.4274636E-07  4.4293929E-06
  2.0000000E-02  6.0141093E-07  4.9081855E-06
  2.0667000E-02  6.6419562E-07  5.4206080E-06
  2.1333000E-02  7.3114211E-07  5.9669919E-06
  2.2000000E-02  8.0259514E-07  6.5501708E-06
  2.2667000E-02  8.7860536E-07  7.1705404E-06
  2.3333000E-02  9.5919177E-07  7.8282746E-06
  2.4000000E-02  1.0447462E-06  8.5265538E-06
  2.4667000E-02  1.1352971E-06  9.2656146E-06
  2.5333000E-02  1.2308445E-06  1.0045470E-05
  2.6000001E-02  1.3318252E-06  1.0869660E-05
  2.6667001E-02  1.4382463E-06  1.1738273E-05
  2.7333001E-02  1.5500874E-06  1.2651138E-05
  2.8000001E-02  1.6678331E-06  1.3612189E-05
  2.8666999E-02  1.7914684E-06  1.4621330E-05
  2.9332999E-02  1.9209488E-06  1.5678186E-05
  2.9999999E-02  2.0568129E-06  1.6787144E-05
  3.0667000E-02  2.1990229E-06  1.7947918E-05
  3.1332999E-02  2.3475029E-06  1.9159866E-05
  3.2000002E-02  2.5028523E-06  2.0427909E-05
  3.2667000E-02  2.6650080E-06  2.1751501E-05
  3.3333000E-02  2.8338625E-06  2.3129778E-05
  3.4000002E-02  3.0100787E-06  2.4568179E-05
  3.4667000E-02  3.1935626E-06  2.6065907E-05
  3.5333000E-02  3.3841816E-06  2.7621880E-05
  3.5999998E-02  3.5826590E-06  2.9242015E-05
  3.6667001E-02  3.7888751E-06  3.0925326E-05
  3.7333000E-02  4.0026607E-06  3.2670428E-05
  3.7999999E-02  4.2248093E-06  3.4483834E-05
  3.8667001E-02  4.4551739E-06  3.6364283E-05
  3.9333001E-02  4.6935402E-06  3.8310100E-05
  3.9999999E-02  4.9407886E-06  4.0328407E-05
  4.0667001E-02  5.1967286E-06  4.2417701E-05
  4.1333001E-02  5.4611091E-06  4.4575943E-05
  4.1999999E-02  5.7348943E-06  4.6810914E-05
  4.2667001E-02  6.0178527E-06  4.9120787E-05
  4.3333001E-02  6.3097009E-06  5.1503277E-05
  4.4000000E-02  6.6114721E-06  5.3966774E-05
  4.4667002E-02  6.9229131E-06  5.6509220E-05
  4.5333002E-02  7.2436851E-06  5.9127873E-05
  4.6000000E-02  7.5749185E-06  6.1831954E-05
  4.6666998E-02  7.9163055E-06  6.4618951E-05
  4.7332998E-02  8.2674796E-06  6.7485860E-05
  4.8000000E-02  8.6296650E-06  7.0442635E-05
  4.8666999E-02  9.0024942E-06  7.3486321E-05
  4.9332999E-02  9.3855606E-06  7.6613724E-05
  5.0000001E-02  9.7801831E-06  7.9835409E-05
  5.0666999E-02  1.0185964E-05  8.3148203E-05
  5.1332999E-02  1.0602431E-05  8.6548294E-05
  5.2000001E-02  1.1031021E-05  9.0047288E-05
  5.2666999E-02  1.1471267E-05  9.3641589E-05
  5.3332999E-02  1.1922660E-05  9.7326891E-05
  5.4000001E-02  1.2386735E-05  1.0111575E-04
  5.4667000E-02  1.2862985E-05  1.0500399E-04
  5.5333000E-02  1.3350840E-05  1.0898713E-04
  5.6000002E-02  1.3851951E-05  1.1307837E-04
  5.6667000E-02  1.4365754E-05  1.1727335E-04
  5.7333000E-02  1.4891636E-05  1.2156698E-04
  5.7999998E-02  1.5431340E-05  1.2597350E-04
  5.8667000E-02  1.5984266E-05  1.3048803E-04
  5.9333000E-02  1.6549739E-05  1.3510496E-04
  5.9999999E-02  1.7129618E-05  1.3983947E-04
  6.0667001E-02  1.7723267E-05  1.4468655E-04
  6.1333001E-02  1.8329907E-05  1.4963979E-04
  6.1999999E-02  1.8951558E-05  1.5471556E-04
  6.2666997E-02  1.9587489E-05  1.5990812E-04
  6.3332997E-02  2.0236921E-05  1.6521070E-04
  6.4000003E-02  2.0901956E-05  1.7064087E-04
  6.4667001E-02  2.1581824E-05  1.7619201E-04
  6.5333001E-02  2.2275655E-05  1.8185737E-04
  6.6000000E-02  2.2985691E-05  1.8765523E-04
  6.6666998E-02  2.3711114E-05  1.9357842E-04
  6.7332998E-02  2.4450959E-05  1.9961981E-04
  6.8000004E-02  2.5207686E-05  2.0579873E-04
  6.8667002E-02  2.5980298E-05  2.1210760E-04
  6.9333002E-02  2.6767842E-05  2.1853855E-04
  7.0000000E-02  2.7572858E-05  2.2511191E-04
  7.0666999E-02  2.8394355E-05  2.3182003E-04
  7.1332999E-02  2.9231258E-05  2.3865406E-04
  7.1999997E-02  3.0086259E-05  2.4563583E-04
  7.2667003E-02  3.0958316E-05  2.5275719E-04
  7.3333003E-02  3.1846270E-05  2.6000818E-04
  7.4000001E-02  3.2752949E-05  2.6741222E-04
  7.4666999E-02  3.3677279E-05  2.7496036E-04
  7.5332999E-02  3.4617966E-05  2.8264220E-04
  7.5999998E-02  3.5578068E-05  2.9048239E-04
  7.6667003E-02  3.6556354E-05  2.9847154E-04
  7.7333003E-02  3.7551530E-05  3.0659832E-04
  7.8000002E-02  3.8566737E-05  3.1488913E-04
  7.8667000E-02  3.9600756E-05  3.2333328E-04
  7.9333000E-02  4.0652107E-05  3.3191923E-04
  7.9999998E-02  4.1724226E-05  3.4067474E-04
  8.0666997E-02  4.2815689E-05  3.4958828E-04
  8.1332996E-02  4.3925029E-05  3.5864793E-04
  8.2000002E-02  4.5055760E-05  3.6788281E-04
  8.2667001E-02  4.6206456E-05  3.7728006E-04
  8.3333001E-02  4.7375546E-05  3.8682818E-04
  8.3999999E-02  4.8566752E-05  3.9655634E-04
  8.4666997E-02  4.9778464E-05  4.0645240E-04
  8.5332997E-02  5.1009054E-05  4.1650285E-04
  8.6000003E-02  5.2262487E-05  4.2673951E-04
  8.6667001E-02  5.3537038E-05  4.3714890E-04
  8.7333001E-02  5.4830998E-05  4.4771726E-04
  8.8000000E-02  5.6148445E-05  4.5847730E-04
  8.8666998E-02  5.7487679E-05  4.6941539E-04
  8.9332998E-02  5.8846785E-05  4.8051588E-04
  9.0000004E-02  6.0230155E-05  4.9181434E-04
  9.0667002E-02  6.1635896E-05  5.0329586E-04
  9.1333002E-02  6.3062042E-05  5.1494426E-04
  9.2000000E-02  6.4513144E-05  5.2679615E-04
  9.2666999E-02  6.5987195E-05  5.3883612E-04
  9.3332998E-02  6.7482259E-05  5.5104750E-04
  9.3999997E-02  6.9002963E-05  5.6346838E-04
  9.4667003E-02  7.0547336E-05  5.7608244E-04
  9.5333003E-02  7.2113173E-05  5.8887212E-04
  9.6000001E-02  7.3705392E-05  6.0187723E-04
  9.6666999E-02  7.5321899E-05  6.1508134E-04
  9.7332999E-02  7.6960408E-05  6.2846515E-04
  9.7999997E-02  7.8626064E-05  6.4206996E-04
  9.8667003E-02  8.0316626E-05  6.5587921E-04
  9.9333003E-02  8.2029743E-05  6.6987291E-04
  0.1000000      8.3770799E-05  6.8409409E-04
  0.1006670      8.5537380E-05  6.9852447E-04
  0.1013330      8.7327040E-05  7.1314367E-04
  0.1020000      8.9145404E-05  7.2799693E-04
  0.1026670      9.0989983E-05  7.4306404E-04
  0.1033330      9.2858150E-05  7.5832551E-04
  0.1040000      9.4755829E-05  7.7382679E-04
  0.1046670      9.6680298E-05  7.8954798E-04
  0.1053330      9.8629025E-05  8.0546655E-04
  0.1060000      1.0060797E-04  8.2163222E-04
  0.1066670      1.0261445E-04  8.3802314E-04
  0.1073330      1.0464566E-04  8.5461652E-04
  0.1080000      1.0670793E-04  8.7146304E-04
  0.1086670      1.0879838E-04  8.8854006E-04
  0.1093330      1.1091411E-04  9.0582459E-04
  0.1100000      1.1306167E-04  9.2336891E-04
  0.1106670      1.1523813E-04  9.4114902E-04
  0.1113330      1.1744044E-04  9.5914153E-04
  0.1120000      1.1967537E-04  9.7739964E-04
  0.1126670      1.2193999E-04  9.9590025E-04
  0.1133330      1.2423094E-04  1.0146167E-03
  0.1140000      1.2655529E-04  1.0336067E-03
  0.1146670      1.2891009E-04  1.0528441E-03
  0.1153330      1.3129180E-04  1.0723020E-03
  0.1160000      1.3370777E-04  1.0920406E-03
  0.1166670      1.3615481E-04  1.1120323E-03
  0.1173330      1.3862930E-04  1.1322499E-03
  0.1180000      1.4113897E-04  1.1527539E-03
  0.1186670      1.4368040E-04  1.1735172E-03
  0.1193330      1.4624980E-04  1.1945110E-03
  0.1200000      1.4885538E-04  1.2157990E-03
  0.1206670      1.5149337E-04  1.2373523E-03
  0.1213330      1.5415996E-04  1.2591392E-03
  0.1220000      1.5686348E-04  1.2812281E-03
  0.1226670      1.5960008E-04  1.3035873E-03
  0.1233330      1.6236599E-04  1.3261876E-03
  0.1240000      1.6516974E-04  1.3490954E-03
  0.1246670      1.6800726E-04  1.3722796E-03
  0.1253330      1.7087463E-04  1.3957092E-03
  0.1260000      1.7378066E-04  1.4194542E-03
  0.1266670      1.7672137E-04  1.4434820E-03
  0.1273330      1.7969242E-04  1.4677587E-03
  0.1280000      1.8270317E-04  1.4923597E-03
  0.1286670      1.8574919E-04  1.5172483E-03
  0.1293330      1.8882620E-04  1.5423915E-03
  0.1300000      1.9194368E-04  1.5678655E-03
  0.1306670      1.9509740E-04  1.5936359E-03
  0.1313330      1.9828262E-04  1.6196627E-03
  0.1320000      2.0150920E-04  1.6460299E-03
  0.1326670      2.0477288E-04  1.6726969E-03
  0.1333330      2.0806860E-04  1.6996285E-03
  0.1340000      2.1140670E-04  1.7269063E-03
  0.1346670      2.1478238E-04  1.7544917E-03
  0.1353330      2.1819095E-04  1.7823457E-03
  0.1360000      2.2164278E-04  1.8105537E-03
  0.1366670      2.2513310E-04  1.8390765E-03
  0.1373330      2.2865676E-04  1.8678721E-03
  0.1380000      2.3222456E-04  1.8970284E-03
  0.1386670      2.3583183E-04  1.9265073E-03
  0.1393330      2.3947301E-04  1.9562629E-03
  0.1400000      2.4315936E-04  1.9863895E-03
  0.1406670      2.4688581E-04  2.0168424E-03
  0.1413330      2.5064676E-04  2.0475793E-03
  0.1420000      2.5445406E-04  2.0786945E-03
  0.1426670      2.5830208E-04  2.1101409E-03
  0.1433330      2.6218547E-04  2.1418785E-03
  0.1440000      2.6611591E-04  2.1740000E-03
  0.1446670      2.7008812E-04  2.2064641E-03
  0.1453330      2.7409621E-04  2.2392210E-03
  0.1460000      2.7815232E-04  2.2723712E-03
  0.1466670      2.8225099E-04  2.3058690E-03
  0.1473330      2.8638609E-04  2.3396665E-03
  0.1480000      2.9057066E-04  2.3738656E-03
  0.1486670      2.9479823E-04  2.4084174E-03
  0.1493330      2.9906302E-04  2.4432763E-03
  0.1500000      3.0337812E-04  2.4785432E-03
  0.1506670      3.0773738E-04  2.5141723E-03
  0.1513330      3.1213427E-04  2.5501114E-03
  0.1520000      3.1658230E-04  2.5864667E-03
  0.1526670      3.2107558E-04  2.6231927E-03
  0.1533330      3.2560728E-04  2.6602321E-03
  0.1540000      3.3019105E-04  2.6976999E-03
  0.1546670      3.3482086E-04  2.7355410E-03
  0.1553330      3.3948972E-04  2.7737049E-03
  0.1560000      3.4421199E-04  2.8123027E-03
  0.1566670      3.4898077E-04  2.8512818E-03
  0.1573330      3.5378945E-04  2.8905878E-03
  0.1580000      3.5865259E-04  2.9303411E-03
  0.1586670      3.6356330E-04  2.9704797E-03
  0.1593330      3.6851439E-04  3.0109517E-03
  0.1600000      3.7352083E-04  3.0518756E-03
  0.1606670      3.7857576E-04  3.0931986E-03
  0.1613330      3.8367198E-04  3.1348534E-03
  0.1620000      3.8882461E-04  3.1769758E-03
  0.1626670      3.9402660E-04  3.2194983E-03
  0.1633330      3.9927065E-04  3.2623648E-03
  0.1640000      4.0457217E-04  3.3057034E-03
  0.1646670      4.0992355E-04  3.3494513E-03
  0.1653330      4.1531786E-04  3.3935478E-03
  0.1660000      4.2077090E-04  3.4381251E-03
  0.1666670      4.2627510E-04  3.4831231E-03
  0.1673330      4.3182247E-04  3.5284727E-03
  0.1680000      4.3742964E-04  3.5743129E-03
  0.1686670      4.4308905E-04  3.6205784E-03
  0.1693330      4.4879207E-04  3.6672009E-03
  0.1700000      4.5455658E-04  3.7143265E-03
  0.1706670      4.6037367E-04  3.7618829E-03
  0.1713330      4.6623536E-04  3.8098055E-03
  0.1720000      4.7215936E-04  3.8582392E-03
  0.1726670      4.7813708E-04  3.9071119E-03
  0.1733330      4.8416050E-04  3.9563524E-03
  0.1740000      4.9024686E-04  4.0061139E-03
  0.1746670      4.9638841E-04  4.0563261E-03
  0.1753330      5.0257542E-04  4.1069118E-03
  0.1760000      5.0882751E-04  4.1580289E-03
  0.1766670      5.1513547E-04  4.2096023E-03
  0.1773330      5.2149000E-04  4.2615561E-03
  0.1780000      5.2791025E-04  4.3140468E-03
  0.1786670      5.3438736E-04  4.3670028E-03
  0.1793330      5.4091180E-04  4.4203503E-03
  0.1800000      5.4750330E-04  4.4742459E-03
  0.1806670      5.5415247E-04  4.5286105E-03
  0.1813330      5.6084967E-04  4.5833718E-03
  0.1820000      5.6761521E-04  4.6386914E-03
  0.1826670      5.7443976E-04  4.6944921E-03
  0.1833330      5.8131275E-04  4.7506904E-03
  0.1840000      5.8825512E-04  4.8074587E-03
  0.1846670      5.9525773E-04  4.8647169E-03
  0.1853330      6.0230936E-04  4.9223769E-03
  0.1860000      6.0943211E-04  4.9806186E-03
  0.1866670      6.1661564E-04  5.0393585E-03
  0.1873330      6.2384893E-04  5.0985091E-03
  0.1880000      6.3115486E-04  5.1582512E-03
  0.1886670      6.3852238E-04  5.2184961E-03
  0.1893330      6.4594089E-04  5.2791573E-03
  0.1900000      6.5343274E-04  5.3404206E-03
  0.1906670      6.6098745E-04  5.4022009E-03
  0.1913330      6.6859316E-04  5.4643978E-03
  0.1920000      6.7627471E-04  5.5272114E-03
  0.1926670      6.8401947E-04  5.5905483E-03
  0.1933330      6.9181656E-04  5.6543108E-03
  0.1940000      6.9969014E-04  5.7186973E-03
  0.1946670      7.0762803E-04  5.7836142E-03
  0.1953330      7.1561924E-04  5.8489675E-03
  0.1960000      7.2368816E-04  5.9149554E-03
  0.1966670      7.3182269E-04  5.9814807E-03
  0.1973330      7.4001122E-04  6.0484465E-03
  0.1980000      7.4827881E-04  6.1160615E-03
  0.1986670      7.5661286E-04  6.1842208E-03
  0.1993330      7.6500169E-04  6.2528295E-03
  0.2000000      7.7347120E-04  6.3220966E-03
  0.2006670      7.8200828E-04  6.3919150E-03
  0.2013330      7.9060107E-04  6.4621926E-03
  0.2020000      7.9927518E-04  6.5331361E-03
  0.2026670      8.0801826E-04  6.6046459E-03
  0.2033330      8.1681798E-04  6.6766171E-03
  0.2040000      8.2570018E-04  6.7492654E-03
  0.2046670      8.3465321E-04  6.8224878E-03
  0.2053330      8.4366277E-04  6.8961829E-03
  0.2060000      8.5275655E-04  6.9705611E-03
  0.2066670      8.6192257E-04  7.0455275E-03
  0.2073330      8.7114534E-04  7.1209674E-03
  0.2080000      8.8045473E-04  7.1971086E-03
  0.2086670      8.8983605E-04  7.2738444E-03
  0.2093330      8.9927675E-04  7.3510627E-03
  0.2100000      9.0880331E-04  7.4289870E-03
  0.2106670      9.1840432E-04  7.5075189E-03
  0.2113330      9.2806498E-04  7.5865411E-03
  0.2120000      9.3781378E-04  7.6662838E-03
  0.2126670      9.4763754E-04  7.7466411E-03
  0.2133330      9.5752120E-04  7.8274952E-03
  0.2140000      9.6749538E-04  7.9090847E-03
  0.2146670      9.7754539E-04  7.9912916E-03
  0.2153330      9.8765700E-04  8.0740070E-03
  0.2160000      9.9785952E-04  8.1574665E-03
  0.2166670      1.0081391E-03  8.2415566E-03
  0.2173330      1.0184813E-03  8.3261570E-03
  0.2180000      1.0289158E-03  8.4115230E-03
  0.2186670      1.0394284E-03  8.4975222E-03
  0.2193330      1.0500043E-03  8.5840402E-03
  0.2200000      1.0606754E-03  8.6713331E-03
  0.2206670      1.0714256E-03  8.7592779E-03
  0.2213330      1.0822385E-03  8.8477405E-03
  0.2220000      1.0931483E-03  8.9369928E-03
  0.2226670      1.1041384E-03  9.0269046E-03
  0.2233330      1.1151936E-03  9.1173435E-03
  0.2240000      1.1263459E-03  9.2085917E-03
  0.2246670      1.1375803E-03  9.3004992E-03
  0.2253330      1.1488801E-03  9.3929507E-03
  0.2260000      1.1602796E-03  9.4862059E-03
  0.2266670      1.1717618E-03  9.5801512E-03
  0.2273330      1.1833104E-03  9.6746357E-03
  0.2280000      1.1949594E-03  9.7699435E-03
  0.2286670      1.2066935E-03  9.8659461E-03
  0.2293330      1.2184937E-03  9.9624973E-03
  0.2300000      1.2303971E-03  1.0059888E-02
  0.2306670      1.2423855E-03  1.0157977E-02
  0.2313330      1.2544424E-03  1.0256627E-02
  0.2320000      1.2666032E-03  1.0356124E-02
  0.2326670      1.2788511E-03  1.0456336E-02
  0.2333330      1.2911677E-03  1.0557110E-02
  0.2340000      1.3035899E-03  1.0658764E-02
  0.2346670      1.3161005E-03  1.0761129E-02
  0.2353330      1.3286815E-03  1.0864066E-02
  0.2360000      1.3413678E-03  1.0967880E-02
  0.2366670      1.3541461E-03  1.1072435E-02
  0.2373330      1.3669931E-03  1.1177562E-02
  0.2380000      1.3799497E-03  1.1283590E-02
  0.2386670      1.3929979E-03  1.1390357E-02
  0.2393330      1.4061168E-03  1.1497711E-02
  0.2400000      1.4193470E-03  1.1605971E-02
  0.2406670      1.4326683E-03  1.1714985E-02
  0.2413330      1.4460628E-03  1.1824590E-02
  0.2420000      1.4595701E-03  1.1935129E-02
  0.2426670      1.4731711E-03  1.2046424E-02
  0.2433330      1.4868437E-03  1.2158323E-02
  0.2440000      1.5006331E-03  1.2271157E-02
  0.2446670      1.5145154E-03  1.2384768E-02
  0.2453330      1.5284725E-03  1.2498993E-02
  0.2460000      1.5425462E-03  1.2614170E-02
  0.2466670      1.5567151E-03  1.2730128E-02
  0.2473330      1.5709591E-03  1.2846698E-02
  0.2480000      1.5853213E-03  1.2964237E-02
  0.2486670      1.5997817E-03  1.3082588E-02
  0.2493330      1.6143180E-03  1.3201541E-02
  0.2500000      1.6289734E-03  1.3321495E-02
  0.2506670      1.6437275E-03  1.3442257E-02
  0.2513330      1.6585592E-03  1.3563629E-02
  0.2520000      1.6735129E-03  1.3686022E-02
  0.2526670      1.6885659E-03  1.3809235E-02
  0.2533330      1.7036982E-03  1.3933070E-02
  0.2540000      1.7189534E-03  1.4057931E-02
  0.2546670      1.7343088E-03  1.4183624E-02
  0.2553330      1.7497453E-03  1.4309964E-02
  0.2560000      1.7653066E-03  1.4437330E-02
  0.2566670      1.7809696E-03  1.4565534E-02
  0.2573330      1.7967133E-03  1.4694403E-02
  0.2580000      1.8125852E-03  1.4824307E-02
  0.2586670      1.8285600E-03  1.4955077E-02
  0.2593330      1.8446178E-03  1.5086506E-02
  0.2600000      1.8608021E-03  1.5218984E-02
  0.2606670      1.8770944E-03  1.5352345E-02
  0.2613330      1.8934669E-03  1.5486363E-02
  0.2620000      1.9099719E-03  1.5621469E-02
  0.2626670      1.9265842E-03  1.5757458E-02
  0.2633330      1.9432791E-03  1.5894119E-02
  0.2640000      1.9601081E-03  1.6031876E-02
  0.2646670      1.9770449E-03  1.6170520E-02
  0.2653330      1.9940650E-03  1.6309852E-02
  0.2660000      2.0112211E-03  1.6450293E-02
  0.2666670      2.0284869E-03  1.6591636E-02
  0.2673330      2.0458375E-03  1.6733672E-02
  0.2680000      2.0633263E-03  1.6876848E-02
  0.2686670      2.0809262E-03  1.7020926E-02
  0.2693330      2.0986113E-03  1.7165717E-02
  0.2700000      2.1164371E-03  1.7311638E-02
  0.2706670      2.1343757E-03  1.7458495E-02
  0.2713330      2.1524006E-03  1.7606074E-02
  0.2720000      2.1705679E-03  1.7754806E-02
  0.2726670      2.1888497E-03  1.7904477E-02
  0.2733330      2.2072180E-03  1.8054867E-02
  0.2740000      2.2257320E-03  1.8206431E-02
  0.2746670      2.2443600E-03  1.8358957E-02
  0.2753330      2.2630782E-03  1.8512204E-02
  0.2760000      2.2819412E-03  1.8666647E-02
  0.2766670      2.3009239E-03  1.8822066E-02
  0.2773330      2.3199955E-03  1.8978214E-02
  0.2780000      2.3392148E-03  1.9135581E-02
  0.2786670      2.3585544E-03  1.9293927E-02
  0.2793330      2.3779836E-03  1.9453008E-02
  0.2800000      2.3975642E-03  1.9613326E-02
  0.2806670      2.4172643E-03  1.9774642E-02
  0.2813330      2.4370579E-03  1.9936711E-02
  0.2820000      2.4570019E-03  2.0100020E-02
  0.2826670      2.4770705E-03  2.0264344E-02
  0.2833330      2.4972314E-03  2.0429436E-02
  0.2840000      2.5175475E-03  2.0595789E-02
  0.2846670      2.5379860E-03  2.0763148E-02
  0.2853330      2.5585210E-03  2.0931307E-02
  0.2860000      2.5792124E-03  2.1100724E-02
  0.2866670      2.6000259E-03  2.1271180E-02
  0.2873330      2.6209401E-03  2.1442428E-02
  0.2880000      2.6420089E-03  2.1614965E-02
  0.2886670      2.6632084E-03  2.1788562E-02
