 # energy x y z
  0.0000000E+00  0.0000000E+00  0.0000000E+00  0.0000000E+00
  6.6700001E-04  7.0088922E-12  6.9867350E-12  0.0000000E+00
  1.3330000E-03  5.5981369E-11  5.5804354E-11  0.0000000E+00
  2.0000001E-03  1.8920178E-10  1.8860341E-10  0.0000000E+00
  2.6670001E-03  4.4893744E-10  4.4751783E-10  0.0000000E+00
  3.3330000E-03  8.7680757E-10  8.7403462E-10  0.0000000E+00
  4.0000002E-03  1.5165638E-09  1.5117660E-09  0.0000000E+00
  4.6669999E-03  2.4103275E-09  2.4027025E-09  0.0000000E+00
  5.3329999E-03  3.5988110E-09  3.5874275E-09  0.0000000E+00
  6.0000001E-03  5.1283813E-09  5.1121574E-09  0.0000000E+00
  6.6669998E-03  7.0404500E-09  7.0181709E-09  0.0000000E+00
  7.3330002E-03  9.3742418E-09  9.3445802E-09  0.0000000E+00
  8.0000004E-03  1.2179902E-08  1.2141355E-08  0.0000000E+00
  8.6669996E-03  1.5497534E-08  1.5448478E-08  0.0000000E+00
  9.3329996E-03  1.9364329E-08  1.9303023E-08  0.0000000E+00
  9.9999998E-03  2.3835355E-08  2.3759887E-08  0.0000000E+00
  1.0667000E-02  2.8948849E-08  2.8857189E-08  0.0000000E+00
  1.1333000E-02  3.4739362E-08  3.4629345E-08  0.0000000E+00
  1.2000000E-02  4.1268031E-08  4.1137351E-08  0.0000000E+00
  1.2667000E-02  4.8570719E-08  4.8416883E-08  0.0000000E+00
  1.3333000E-02  5.6678658E-08  5.6499154E-08  0.0000000E+00
  1.4000000E-02  6.5660387E-08  6.5452404E-08  0.0000000E+00
  1.4667000E-02  7.5548584E-08  7.5309302E-08  0.0000000E+00
  1.5333000E-02  8.6370804E-08  8.6097181E-08  0.0000000E+00
  1.6000001E-02  9.8204040E-08  9.7892880E-08  0.0000000E+00
  1.6666999E-02  1.1107729E-07  1.1072534E-07  0.0000000E+00
  1.7333001E-02  1.2501366E-07  1.2461761E-07  0.0000000E+00
  1.7999999E-02  1.4009980E-07  1.3965584E-07  0.0000000E+00
  1.8666999E-02  1.5636070E-07  1.5586514E-07  0.0000000E+00
  1.9332999E-02  1.7381423E-07  1.7326339E-07  0.0000000E+00
  2.0000000E-02  1.9255808E-07  1.9194775E-07  0.0000000E+00
  2.0667000E-02  2.1261226E-07  2.1193824E-07  0.0000000E+00
  2.1333000E-02  2.3398911E-07  2.3324716E-07  0.0000000E+00
  2.2000000E-02  2.5679842E-07  2.5598416E-07  0.0000000E+00
  2.2667000E-02  2.8105472E-07  2.8016336E-07  0.0000000E+00
  2.3333000E-02  3.0676415E-07  3.0579136E-07  0.0000000E+00
  2.4000000E-02  3.3404979E-07  3.3299028E-07  0.0000000E+00
  2.4667000E-02  3.6292013E-07  3.6176897E-07  0.0000000E+00
  2.5333000E-02  3.9337465E-07  3.9212676E-07  0.0000000E+00
  2.6000001E-02  4.2555081E-07  4.2420072E-07  0.0000000E+00
  2.6667001E-02  4.5945058E-07  4.5799291E-07  0.0000000E+00
  2.7333001E-02  4.9506571E-07  4.9349467E-07  0.0000000E+00
  2.8000001E-02  5.3255008E-07  5.3086001E-07  0.0000000E+00
  2.8666999E-02  5.7189743E-07  5.7008248E-07  0.0000000E+00
  2.9332999E-02  6.1309208E-07  6.1114611E-07  0.0000000E+00
  2.9999999E-02  6.5630445E-07  6.5422137E-07  0.0000000E+00
  3.0667000E-02  7.0152134E-07  6.9929439E-07  0.0000000E+00
  3.1332999E-02  7.4871804E-07  7.4634079E-07  0.0000000E+00
  3.2000002E-02  7.9808262E-07  7.9554900E-07  0.0000000E+00
  3.2667000E-02  8.4959356E-07  8.4689594E-07  0.0000000E+00
  3.3333000E-02  9.0321771E-07  9.0034899E-07  0.0000000E+00
  3.4000002E-02  9.5916175E-07  9.5611529E-07  0.0000000E+00
  3.4667000E-02  1.0173960E-06  1.0141641E-06  0.0000000E+00
  3.5333000E-02  1.0778749E-06  1.0744511E-06  0.0000000E+00
  3.5999998E-02  1.1408283E-06  1.1372049E-06  0.0000000E+00
  3.6667001E-02  1.2062169E-06  1.2023843E-06  0.0000000E+00
  3.7333000E-02  1.2739843E-06  1.2699364E-06  0.0000000E+00
  3.7999999E-02  1.3443812E-06  1.3401090E-06  0.0000000E+00
  3.8667001E-02  1.4173572E-06  1.4128536E-06  0.0000000E+00
  3.9333001E-02  1.4928478E-06  1.4881035E-06  0.0000000E+00
  3.9999999E-02  1.5711262E-06  1.5661320E-06  0.0000000E+00
  4.0667001E-02  1.6521310E-06  1.6468787E-06  0.0000000E+00
  4.1333001E-02  1.7357816E-06  1.7302636E-06  0.0000000E+00
  4.1999999E-02  1.8223810E-06  1.8165869E-06  0.0000000E+00
  4.2667001E-02  1.9118531E-06  1.9057738E-06  0.0000000E+00
  4.3333001E-02  2.0041093E-06  1.9977374E-06  0.0000000E+00
  4.4000000E-02  2.0994730E-06  2.0927969E-06  0.0000000E+00
  4.4667002E-02  2.1978612E-06  2.1908706E-06  0.0000000E+00
  4.5333002E-02  2.2991653E-06  2.2918518E-06  0.0000000E+00
  4.6000000E-02  2.4037424E-06  2.3960961E-06  0.0000000E+00
  4.6666998E-02  2.5114891E-06  2.5035010E-06  0.0000000E+00
  4.7332998E-02  2.6222938E-06  2.6139496E-06  0.0000000E+00
  4.8000000E-02  2.7365320E-06  2.7278254E-06  0.0000000E+00
  4.8666999E-02  2.8540946E-06  2.8450140E-06  0.0000000E+00
  4.9332999E-02  2.9748480E-06  2.9653809E-06  0.0000000E+00
  5.0000001E-02  3.0992051E-06  3.0893407E-06  0.0000000E+00
  5.0666999E-02  3.2270373E-06  3.2167663E-06  0.0000000E+00
  5.1332999E-02  3.3581964E-06  3.3475060E-06  0.0000000E+00
  5.2000001E-02  3.4931286E-06  3.4820075E-06  0.0000000E+00
  5.2666999E-02  3.6316876E-06  3.6201257E-06  0.0000000E+00
  5.3332999E-02  3.7737154E-06  3.7616996E-06  0.0000000E+00
  5.4000001E-02  3.9196811E-06  3.9072002E-06  0.0000000E+00
  5.4667000E-02  4.0694349E-06  4.0564719E-06  0.0000000E+00
  5.5333000E-02  4.2227866E-06  4.2093375E-06  0.0000000E+00
  5.6000002E-02  4.3802561E-06  4.3663053E-06  0.0000000E+00
  5.6667000E-02  4.5416668E-06  4.5271954E-06  0.0000000E+00
  5.7333000E-02  4.7068143E-06  4.6918185E-06  0.0000000E+00
  5.7999998E-02  4.8762513E-06  4.8607158E-06  0.0000000E+00
  5.8667000E-02  5.0497838E-06  5.0336930E-06  0.0000000E+00
  5.9333000E-02  5.2272012E-06  5.2105420E-06  0.0000000E+00
  5.9999999E-02  5.4090779E-06  5.3918393E-06  0.0000000E+00
  6.0667001E-02  5.5952150E-06  5.5773808E-06  0.0000000E+00
  6.1333001E-02  5.7853649E-06  5.7669222E-06  0.0000000E+00
  6.1999999E-02  5.9801587E-06  5.9610957E-06  0.0000000E+00
  6.2666997E-02  6.1793698E-06  6.1596693E-06  0.0000000E+00
  6.3332997E-02  6.3827370E-06  6.3623879E-06  0.0000000E+00
  6.4000003E-02  6.5909335E-06  6.5699169E-06  0.0000000E+00
  6.4667001E-02  6.8036998E-06  6.7820019E-06  0.0000000E+00
  6.5333001E-02  7.0207634E-06  6.9983744E-06  0.0000000E+00
  6.6000000E-02  7.2428370E-06  7.2197345E-06  0.0000000E+00
  6.6666998E-02  7.4696404E-06  7.4458158E-06  0.0000000E+00
  6.7332998E-02  7.7008908E-06  7.6763217E-06  0.0000000E+00
  6.8000004E-02  7.9373294E-06  7.9120018E-06  0.0000000E+00
  6.8667002E-02  8.1786602E-06  8.1525650E-06  0.0000000E+00
  6.9333002E-02  8.4245803E-06  8.3976975E-06  0.0000000E+00
  7.0000000E-02  8.6758737E-06  8.6481878E-06  0.0000000E+00
  7.0666999E-02  8.9322311E-06  8.9037167E-06  0.0000000E+00
  7.1332999E-02  9.1933034E-06  9.1639649E-06  0.0000000E+00
  7.1999997E-02  9.4599463E-06  9.4297511E-06  0.0000000E+00
  7.2667003E-02  9.7318225E-06  9.7007542E-06  0.0000000E+00
  7.3333003E-02  1.0008560E-05  9.9766021E-06  0.0000000E+00
  7.4000001E-02  1.0291048E-05  1.0258191E-05  0.0000000E+00
  7.4666999E-02  1.0578936E-05  1.0545153E-05  0.0000000E+00
  7.5332999E-02  1.0871832E-05  1.0837109E-05  0.0000000E+00
  7.5999998E-02  1.1170670E-05  1.1134985E-05  0.0000000E+00
  7.6667003E-02  1.1475077E-05  1.1438424E-05  0.0000000E+00
  7.7333003E-02  1.1784633E-05  1.1746989E-05  0.0000000E+00
  7.8000002E-02  1.2100325E-05  1.2061671E-05  0.0000000E+00
  7.8667000E-02  1.2421753E-05  1.2382061E-05  0.0000000E+00
  7.9333000E-02  1.2748473E-05  1.2707742E-05  0.0000000E+00
  7.9999998E-02  1.3081542E-05  1.3039730E-05  0.0000000E+00
  8.0666997E-02  1.3420495E-05  1.3377607E-05  0.0000000E+00
  8.1332996E-02  1.3764901E-05  1.3720900E-05  0.0000000E+00
  8.2000002E-02  1.4115843E-05  1.4070724E-05  0.0000000E+00
  8.2667001E-02  1.4472855E-05  1.4426583E-05  0.0000000E+00
  8.3333001E-02  1.4835448E-05  1.4788020E-05  0.0000000E+00
  8.3999999E-02  1.5204790E-05  1.5156170E-05  0.0000000E+00
  8.4666997E-02  1.5580365E-05  1.5530550E-05  0.0000000E+00
  8.5332997E-02  1.5961679E-05  1.5910631E-05  0.0000000E+00
  8.6000003E-02  1.6349919E-05  1.6297638E-05  0.0000000E+00
  8.6667001E-02  1.6744600E-05  1.6691049E-05  0.0000000E+00
  8.7333001E-02  1.7145143E-05  1.7090300E-05  0.0000000E+00
  8.8000000E-02  1.7552840E-05  1.7496695E-05  0.0000000E+00
  8.8666998E-02  1.7967126E-05  1.7909642E-05  0.0000000E+00
  8.9332998E-02  1.8387447E-05  1.8328610E-05  0.0000000E+00
  9.0000004E-02  1.8815095E-05  1.8754896E-05  0.0000000E+00
  9.0667002E-02  1.9249544E-05  1.9187941E-05  0.0000000E+00
  9.1333002E-02  1.9690156E-05  1.9627134E-05  0.0000000E+00
  9.2000000E-02  2.0138315E-05  2.0073858E-05  0.0000000E+00
  9.2666999E-02  2.0593438E-05  2.0527517E-05  0.0000000E+00
  9.3332998E-02  2.1054864E-05  2.0987471E-05  0.0000000E+00
  9.3999997E-02  2.1524076E-05  2.1455166E-05  0.0000000E+00
  9.4667003E-02  2.2000422E-05  2.1929976E-05  0.0000000E+00
  9.5333003E-02  2.2483238E-05  2.2411235E-05  0.0000000E+00
  9.6000001E-02  2.2974009E-05  2.2900438E-05  0.0000000E+00
  9.6666999E-02  2.3472117E-05  2.3396937E-05  0.0000000E+00
  9.7332999E-02  2.3976841E-05  2.3900047E-05  0.0000000E+00
  9.7999997E-02  2.4489756E-05  2.4411309E-05  0.0000000E+00
  9.8667003E-02  2.5010178E-05  2.4930046E-05  0.0000000E+00
  9.9333003E-02  2.5537340E-05  2.5455525E-05  0.0000000E+00
  0.1000000      2.6072932E-05  2.5989408E-05  0.0000000E+00
  0.1006670      2.6616211E-05  2.6530935E-05  0.0000000E+00
  0.1013330      2.7166412E-05  2.7079350E-05  0.0000000E+00
  0.1020000      2.7725238E-05  2.7636366E-05  0.0000000E+00
  0.1026670      2.8291925E-05  2.8201252E-05  0.0000000E+00
  0.1033330      2.8865687E-05  2.8773178E-05  0.0000000E+00
  0.1040000      2.9448329E-05  2.9353909E-05  0.0000000E+00
  0.1046670      3.0038993E-05  2.9942661E-05  0.0000000E+00
  0.1053330      3.0636886E-05  3.0538642E-05  0.0000000E+00
  0.1060000      3.1243835E-05  3.1143631E-05  0.0000000E+00
  0.1066670      3.1859046E-05  3.1756870E-05  0.0000000E+00
  0.1073330      3.2481621E-05  3.2377437E-05  0.0000000E+00
  0.1080000      3.3113509E-05  3.3007294E-05  0.0000000E+00
  0.1086670      3.3753837E-05  3.3645560E-05  0.0000000E+00
  0.1093330      3.4401681E-05  3.4291304E-05  0.0000000E+00
  0.1100000      3.5059038E-05  3.4946555E-05  0.0000000E+00
  0.1106670      3.5725061E-05  3.5610421E-05  0.0000000E+00
  0.1113330      3.6398720E-05  3.6281934E-05  0.0000000E+00
  0.1120000      3.7082151E-05  3.6963153E-05  0.0000000E+00
  0.1126670      3.7774429E-05  3.7653183E-05  0.0000000E+00
  0.1133330      3.8474507E-05  3.8351016E-05  0.0000000E+00
  0.1140000      3.9184604E-05  3.9058810E-05  0.0000000E+00
  0.1146670      3.9903680E-05  3.9775579E-05  0.0000000E+00
  0.1153330      4.0630777E-05  4.0500301E-05  0.0000000E+00
  0.1160000      4.1368061E-05  4.1235231E-05  0.0000000E+00
  0.1166670      4.2114611E-05  4.1979347E-05  0.0000000E+00
  0.1173330      4.2869277E-05  4.2731572E-05  0.0000000E+00
  0.1180000      4.3634380E-05  4.3494227E-05  0.0000000E+00
  0.1186670      4.4408924E-05  4.4266257E-05  0.0000000E+00
  0.1193330      4.5191769E-05  4.5046596E-05  0.0000000E+00
  0.1200000      4.5985274E-05  4.5837525E-05  0.0000000E+00
  0.1206670      4.6788427E-05  4.6638117E-05  0.0000000E+00
  0.1213330      4.7600042E-05  4.7447087E-05  0.0000000E+00
  0.1220000      4.8422586E-05  4.8266964E-05  0.0000000E+00
  0.1226670      4.9254908E-05  4.9096623E-05  0.0000000E+00
  0.1233330      5.0095867E-05  4.9934846E-05  0.0000000E+00
  0.1240000      5.0948031E-05  5.0784249E-05  0.0000000E+00
  0.1246670      5.1810181E-05  5.1643634E-05  0.0000000E+00
  0.1253330      5.2681131E-05  5.2511750E-05  0.0000000E+00
  0.1260000      5.3563490E-05  5.3391253E-05  0.0000000E+00
  0.1266670      5.4456068E-05  5.4280928E-05  0.0000000E+00
  0.1273330      5.5357577E-05  5.5179546E-05  0.0000000E+00
  0.1280000      5.6270794E-05  5.6089793E-05  0.0000000E+00
  0.1286670      5.7194375E-05  5.7010417E-05  0.0000000E+00
  0.1293330      5.8127091E-05  5.7940102E-05  0.0000000E+00
  0.1300000      5.9071714E-05  5.8881687E-05  0.0000000E+00
  0.1306670      6.0026970E-05  5.9833837E-05  0.0000000E+00
  0.1313330      6.0991464E-05  6.0795232E-05  0.0000000E+00
  0.1320000      6.1968218E-05  6.1768762E-05  0.0000000E+00
  0.1326670      6.2955747E-05  6.2753134E-05  0.0000000E+00
  0.1333330      6.3952662E-05  6.3746847E-05  0.0000000E+00
  0.1340000      6.4962049E-05  6.4752952E-05  0.0000000E+00
  0.1346670      6.5982487E-05  6.5770080E-05  0.0000000E+00
  0.1353330      6.7012486E-05  6.6796783E-05  0.0000000E+00
  0.1360000      6.8055226E-05  6.7836081E-05  0.0000000E+00
  0.1366670      6.9109170E-05  6.8886628E-05  0.0000000E+00
  0.1373330      7.0172886E-05  6.9946880E-05  0.0000000E+00
  0.1380000      7.1249524E-05  7.1020011E-05  0.0000000E+00
  0.1386670      7.2337651E-05  7.2104638E-05  0.0000000E+00
  0.1393330      7.3435673E-05  7.3199095E-05  0.0000000E+00
  0.1400000      7.4546901E-05  7.4306772E-05  0.0000000E+00
  0.1406670      7.5669872E-05  7.5426062E-05  0.0000000E+00
  0.1413330      7.6802826E-05  7.6555370E-05  0.0000000E+00
  0.1420000      7.7949357E-05  7.7698161E-05  0.0000000E+00
  0.1426670      7.9107755E-05  7.8852783E-05  0.0000000E+00
  0.1433330      8.0276332E-05  8.0017599E-05  0.0000000E+00
  0.1440000      8.1458704E-05  8.1196144E-05  0.0000000E+00
  0.1446670      8.2653220E-05  8.2386752E-05  0.0000000E+00
  0.1453330      8.3858060E-05  8.3587722E-05  0.0000000E+00
  0.1460000      8.5076987E-05  8.4802676E-05  0.0000000E+00
  0.1466670      8.6308253E-05  8.6029933E-05  0.0000000E+00
  0.1473330      8.7550041E-05  8.7267661E-05  0.0000000E+00
  0.1480000      8.8806191E-05  8.8519722E-05  0.0000000E+00
  0.1486670      9.0074864E-05  8.9784327E-05  0.0000000E+00
  0.1493330      9.1354203E-05  9.1059555E-05  0.0000000E+00
  0.1500000      9.2648217E-05  9.2349394E-05  0.0000000E+00
  0.1506670      9.3954935E-05  9.3651863E-05  0.0000000E+00
  0.1513330      9.5272611E-05  9.4965224E-05  0.0000000E+00
  0.1520000      9.6605087E-05  9.6293428E-05  0.0000000E+00
  0.1526670      9.7950702E-05  9.7634591E-05  0.0000000E+00
  0.1533330      9.9307166E-05  9.8986668E-05  0.0000000E+00
  0.1540000      1.0067898E-04  1.0035399E-04  0.0000000E+00
  0.1546670      1.0206392E-04  1.0173443E-04  0.0000000E+00
  0.1553330      1.0346006E-04  1.0312606E-04  0.0000000E+00
  0.1560000      1.0487167E-04  1.0453306E-04  0.0000000E+00
  0.1566670      1.0629671E-04  1.0595354E-04  0.0000000E+00
  0.1573330      1.0773321E-04  1.0738525E-04  0.0000000E+00
  0.1580000      1.0918544E-04  1.0883278E-04  0.0000000E+00
  0.1586670      1.1065126E-04  1.1029391E-04  0.0000000E+00
  0.1593330      1.1212863E-04  1.1176654E-04  0.0000000E+00
  0.1600000      1.1362216E-04  1.1325508E-04  0.0000000E+00
  0.1606670      1.1512947E-04  1.1475756E-04  0.0000000E+00
  0.1613330      1.1664850E-04  1.1627171E-04  0.0000000E+00
  0.1620000      1.1818396E-04  1.1780205E-04  0.0000000E+00
  0.1626670      1.1973350E-04  1.1934657E-04  0.0000000E+00
  0.1633330      1.2129494E-04  1.2090293E-04  0.0000000E+00
  0.1640000      1.2287301E-04  1.2247589E-04  0.0000000E+00
  0.1646670      1.2446547E-04  1.2406311E-04  0.0000000E+00
  0.1653330      1.2607002E-04  1.2566235E-04  0.0000000E+00
  0.1660000      1.2769138E-04  1.2727856E-04  0.0000000E+00
  0.1666670      1.2932737E-04  1.2890929E-04  0.0000000E+00
  0.1673330      1.3097579E-04  1.3055216E-04  0.0000000E+00
  0.1680000      1.3264119E-04  1.3221218E-04  0.0000000E+00
  0.1686670      1.3432158E-04  1.3388711E-04  0.0000000E+00
  0.1693330      1.3601423E-04  1.3557429E-04  0.0000000E+00
  0.1700000      1.3772459E-04  1.3727910E-04  0.0000000E+00
  0.1706670      1.3944993E-04  1.3899885E-04  0.0000000E+00
  0.1713330      1.4118795E-04  1.4073114E-04  0.0000000E+00
  0.1720000      1.4294377E-04  1.4248121E-04  0.0000000E+00
  0.1726670      1.4471493E-04  1.4424650E-04  0.0000000E+00
  0.1733330      1.4649870E-04  1.4602467E-04  0.0000000E+00
  0.1740000      1.4830074E-04  1.4782079E-04  0.0000000E+00
  0.1746670      1.5011834E-04  1.4963245E-04  0.0000000E+00
  0.1753330      1.5194889E-04  1.5145706E-04  0.0000000E+00
  0.1760000      1.5379791E-04  1.5330003E-04  0.0000000E+00
  0.1766670      1.5566274E-04  1.5515872E-04  0.0000000E+00
  0.1773330      1.5754063E-04  1.5703059E-04  0.0000000E+00
  0.1780000      1.5943745E-04  1.5892106E-04  0.0000000E+00
  0.1786670      1.6135024E-04  1.6082767E-04  0.0000000E+00
  0.1793330      1.6327616E-04  1.6274743E-04  0.0000000E+00
  0.1800000      1.6522143E-04  1.6468631E-04  0.0000000E+00
  0.1806670      1.6718288E-04  1.6664129E-04  0.0000000E+00
  0.1813330      1.6915784E-04  1.6860988E-04  0.0000000E+00
  0.1820000      1.7115223E-04  1.7059772E-04  0.0000000E+00
  0.1826670      1.7316319E-04  1.7260209E-04  0.0000000E+00
  0.1833330      1.7518767E-04  1.7462001E-04  0.0000000E+00
  0.1840000      1.7723208E-04  1.7665762E-04  0.0000000E+00
  0.1846670      1.7929325E-04  1.7871211E-04  0.0000000E+00
  0.1853330      1.8136812E-04  1.8078028E-04  0.0000000E+00
  0.1860000      1.8346324E-04  1.8286851E-04  0.0000000E+00
  0.1866670      1.8557523E-04  1.8497372E-04  0.0000000E+00
  0.1873330      1.8770147E-04  1.8709294E-04  0.0000000E+00
  0.1880000      1.8984787E-04  1.8923229E-04  0.0000000E+00
  0.1886670      1.9201185E-04  1.9138931E-04  0.0000000E+00
  0.1893330      1.9418978E-04  1.9356003E-04  0.0000000E+00
  0.1900000      1.9638862E-04  1.9575164E-04  0.0000000E+00
  0.1906670      1.9860503E-04  1.9796079E-04  0.0000000E+00
  0.1913330      2.0083567E-04  2.0018421E-04  0.0000000E+00
  0.1920000      2.0308752E-04  2.0242861E-04  0.0000000E+00
  0.1926670      2.0535730E-04  2.0469094E-04  0.0000000E+00
  0.1933330      2.0764145E-04  2.0696760E-04  0.0000000E+00
  0.1940000      2.0994703E-04  2.0926583E-04  0.0000000E+00
  0.1946670      2.1227080E-04  2.1158201E-04  0.0000000E+00
  0.1953330      2.1460926E-04  2.1391278E-04  0.0000000E+00
  0.1960000      2.1696954E-04  2.1626521E-04  0.0000000E+00
  0.1966670      2.1934816E-04  2.1863604E-04  0.0000000E+00
  0.1973330      2.2174171E-04  2.2102171E-04  0.0000000E+00
  0.1980000      2.2415735E-04  2.2342951E-04  0.0000000E+00
  0.1986670      2.2659171E-04  2.2585579E-04  0.0000000E+00
  0.1993330      2.2904100E-04  2.2829726E-04  0.0000000E+00
  0.2000000      2.3151291E-04  2.3076097E-04  0.0000000E+00
  0.2006670      2.3400360E-04  2.3324348E-04  0.0000000E+00
  0.2013330      2.3650967E-04  2.3574139E-04  0.0000000E+00
  0.2020000      2.3903845E-04  2.3826188E-04  0.0000000E+00
  0.2026670      2.4158650E-04  2.4080164E-04  0.0000000E+00
  0.2033330      2.4414997E-04  2.4335671E-04  0.0000000E+00
  0.2040000      2.4673686E-04  2.4593493E-04  0.0000000E+00
  0.2046670      2.4934302E-04  2.4853271E-04  0.0000000E+00
  0.2053330      2.5196467E-04  2.5114580E-04  0.0000000E+00
  0.2060000      2.5461000E-04  2.5378249E-04  0.0000000E+00
  0.2066670      2.5727504E-04  2.5643868E-04  0.0000000E+00
  0.2073330      2.5995602E-04  2.5911091E-04  0.0000000E+00
  0.2080000      2.6266073E-04  2.6180694E-04  0.0000000E+00
  0.2086670      2.6538566E-04  2.6452279E-04  0.0000000E+00
  0.2093330      2.6812666E-04  2.6725454E-04  0.0000000E+00
  0.2100000      2.7089161E-04  2.7001058E-04  0.0000000E+00
  0.2106670      2.7367691E-04  2.7278683E-04  0.0000000E+00
  0.2113330      2.7647871E-04  2.7557946E-04  0.0000000E+00
  0.2120000      2.7930486E-04  2.7839639E-04  0.0000000E+00
  0.2126670      2.8215180E-04  2.8123386E-04  0.0000000E+00
  0.2133330      2.8501500E-04  2.8408770E-04  0.0000000E+00
  0.2140000      2.8790318E-04  2.8696650E-04  0.0000000E+00
  0.2146670      2.9081240E-04  2.8986606E-04  0.0000000E+00
  0.2153330      2.9373815E-04  2.9278215E-04  0.0000000E+00
  0.2160000      2.9668905E-04  2.9572356E-04  0.0000000E+00
  0.2166670      2.9966130E-04  2.9868592E-04  0.0000000E+00
  0.2173330      3.0265038E-04  3.0166516E-04  0.0000000E+00
