 #  energy  xx  yy  zz  xy  xz  yz
       0.000000       0.024701       0.024187       0.000000       1.000000       1.000000       1.000000
       0.000667       0.024708       0.024194       0.000000       1.000000       1.000000       1.000000
       0.001333       0.024716       0.024201       0.000000       1.000000       1.000000       1.000000
       0.002000       0.024723       0.024208       0.000000       1.000000       1.000000       1.000000
       0.002667       0.024730       0.024216       0.000000       1.000000       1.000000       1.000000
       0.003333       0.024738       0.024223       0.000000       1.000000       1.000000       1.000000
       0.004000       0.024745       0.024230       0.000000       1.000000       1.000000       1.000000
       0.004667       0.024752       0.024237       0.000000       1.000000       1.000000       1.000000
       0.005333       0.024759       0.024244       0.000000       1.000000       1.000000       1.000000
       0.006000       0.024767       0.024251       0.000000       1.000000       1.000000       1.000000
       0.006667       0.024774       0.024259       0.000000       1.000000       1.000000       1.000000
       0.007333       0.024781       0.024266       0.000000       1.000000       1.000000       1.000000
       0.008000       0.024789       0.024273       0.000000       1.000000       1.000000       1.000000
       0.008667       0.024796       0.024280       0.000000       1.000000       1.000000       1.000000
       0.009333       0.024803       0.024287       0.000000       1.000000       1.000000       1.000000
       0.010000       0.024811       0.024295       0.000000       1.000000       1.000000       1.000000
       0.010667       0.024818       0.024302       0.000000       1.000000       1.000000       1.000000
       0.011333       0.024825       0.024309       0.000000       1.000000       1.000000       1.000000
       0.012000       0.024833       0.024316       0.000000       1.000000       1.000000       1.000000
       0.012667       0.024840       0.024324       0.000000       1.000000       1.000000       1.000000
       0.013333       0.024847       0.024331       0.000000       1.000000       1.000000       1.000000
       0.014000       0.024855       0.024338       0.000000       1.000000       1.000000       1.000000
       0.014667       0.024862       0.024345       0.000000       1.000000       1.000000       1.000000
       0.015333       0.024869       0.024352       0.000000       1.000000       1.000000       1.000000
       0.016000       0.024877       0.024360       0.000000       1.000000       1.000000       1.000000
       0.016667       0.024884       0.024367       0.000000       1.000000       1.000000       1.000000
       0.017333       0.024891       0.024374       0.000000       1.000000       1.000000       1.000000
       0.018000       0.024899       0.024381       0.000000       1.000000       1.000000       1.000000
       0.018667       0.024906       0.024389       0.000000       1.000000       1.000000       1.000000
       0.019333       0.024913       0.024396       0.000000       1.000000       1.000000       1.000000
       0.020000       0.024921       0.024403       0.000000       1.000000       1.000000       1.000000
       0.020667       0.024928       0.024410       0.000000       1.000000       1.000000       1.000000
       0.021333       0.024936       0.024418       0.000000       1.000000       1.000000       1.000000
       0.022000       0.024943       0.024425       0.000000       1.000000       1.000000       1.000000
       0.022667       0.024950       0.024432       0.000000       1.000000       1.000000       1.000000
       0.023333       0.024958       0.024440       0.000000       1.000000       1.000000       1.000000
       0.024000       0.024965       0.024447       0.000000       1.000000       1.000000       1.000000
       0.024667       0.024973       0.024454       0.000000       1.000000       1.000000       1.000000
       0.025333       0.024980       0.024461       0.000000       1.000000       1.000000       1.000000
       0.026000       0.024987       0.024469       0.000000       1.000000       1.000000       1.000000
       0.026667       0.024995       0.024476       0.000000       1.000000       1.000000       1.000000
       0.027333       0.025002       0.024483       0.000000       1.000000       1.000000       1.000000
       0.028000       0.025010       0.024491       0.000000       1.000000       1.000000       1.000000
       0.028667       0.025017       0.024498       0.000000       1.000000       1.000000       1.000000
       0.029333       0.025025       0.024505       0.000000       1.000000       1.000000       1.000000
       0.030000       0.025032       0.024513       0.000000       1.000000       1.000000       1.000000
       0.030667       0.025039       0.024520       0.000000       1.000000       1.000000       1.000000
       0.031333       0.025047       0.024527       0.000000       1.000000       1.000000       1.000000
       0.032000       0.025054       0.024534       0.000000       1.000000       1.000000       1.000000
       0.032667       0.025062       0.024542       0.000000       1.000000       1.000000       1.000000
       0.033333       0.025069       0.024549       0.000000       1.000000       1.000000       1.000000
       0.034000       0.025077       0.024556       0.000000       1.000000       1.000000       1.000000
       0.034667       0.025084       0.024564       0.000000       1.000000       1.000000       1.000000
       0.035333       0.025091       0.024571       0.000000       1.000000       1.000000       1.000000
       0.036000       0.025099       0.024578       0.000000       1.000000       1.000000       1.000000
       0.036667       0.025106       0.024586       0.000000       1.000000       1.000000       1.000000
       0.037333       0.025114       0.024593       0.000000       1.000000       1.000000       1.000000
       0.038000       0.025121       0.024600       0.000000       1.000000       1.000000       1.000000
       0.038667       0.025129       0.024608       0.000000       1.000000       1.000000       1.000000
       0.039333       0.025136       0.024615       0.000000       1.000000       1.000000       1.000000
       0.040000       0.025144       0.024623       0.000000       1.000000       1.000000       1.000000
       0.040667       0.025151       0.024630       0.000000       1.000000       1.000000       1.000000
       0.041333       0.025159       0.024637       0.000000       1.000000       1.000000       1.000000
       0.042000       0.025166       0.024645       0.000000       1.000000       1.000000       1.000000
       0.042667       0.025174       0.024652       0.000000       1.000000       1.000000       1.000000
       0.043333       0.025181       0.024659       0.000000       1.000000       1.000000       1.000000
       0.044000       0.025189       0.024667       0.000000       1.000000       1.000000       1.000000
       0.044667       0.025196       0.024674       0.000000       1.000000       1.000000       1.000000
       0.045333       0.025204       0.024682       0.000000       1.000000       1.000000       1.000000
       0.046000       0.025211       0.024689       0.000000       1.000000       1.000000       1.000000
       0.046667       0.025219       0.024696       0.000000       1.000000       1.000000       1.000000
       0.047333       0.025226       0.024704       0.000000       1.000000       1.000000       1.000000
       0.048000       0.025234       0.024711       0.000000       1.000000       1.000000       1.000000
       0.048667       0.025241       0.024719       0.000000       1.000000       1.000000       1.000000
       0.049333       0.025249       0.024726       0.000000       1.000000       1.000000       1.000000
       0.050000       0.025256       0.024733       0.000000       1.000000       1.000000       1.000000
       0.050667       0.025264       0.024741       0.000000       1.000000       1.000000       1.000000
       0.051333       0.025271       0.024748       0.000000       1.000000       1.000000       1.000000
       0.052000       0.025279       0.024756       0.000000       1.000000       1.000000       1.000000
       0.052667       0.025287       0.024763       0.000000       1.000000       1.000000       1.000000
       0.053333       0.025294       0.024771       0.000000       1.000000       1.000000       1.000000
       0.054000       0.025302       0.024778       0.000000       1.000000       1.000000       1.000000
       0.054667       0.025309       0.024785       0.000000       1.000000       1.000000       1.000000
       0.055333       0.025317       0.024793       0.000000       1.000000       1.000000       1.000000
       0.056000       0.025324       0.024800       0.000000       1.000000       1.000000       1.000000
       0.056667       0.025332       0.024808       0.000000       1.000000       1.000000       1.000000
       0.057333       0.025339       0.024815       0.000000       1.000000       1.000000       1.000000
       0.058000       0.025347       0.024823       0.000000       1.000000       1.000000       1.000000
       0.058667       0.025355       0.024830       0.000000       1.000000       1.000000       1.000000
       0.059333       0.025362       0.024838       0.000000       1.000000       1.000000       1.000000
       0.060000       0.025370       0.024845       0.000000       1.000000       1.000000       1.000000
       0.060667       0.025377       0.024853       0.000000       1.000000       1.000000       1.000000
       0.061333       0.025385       0.024860       0.000000       1.000000       1.000000       1.000000
       0.062000       0.025392       0.024867       0.000000       1.000000       1.000000       1.000000
       0.062667       0.025400       0.024875       0.000000       1.000000       1.000000       1.000000
       0.063333       0.025408       0.024882       0.000000       1.000000       1.000000       1.000000
       0.064000       0.025415       0.024890       0.000000       1.000000       1.000000       1.000000
       0.064667       0.025423       0.024897       0.000000       1.000000       1.000000       1.000000
       0.065333       0.025431       0.024905       0.000000       1.000000       1.000000       1.000000
       0.066000       0.025438       0.024912       0.000000       1.000000       1.000000       1.000000
       0.066667       0.025446       0.024920       0.000000       1.000000       1.000000       1.000000
       0.067333       0.025453       0.024927       0.000000       1.000000       1.000000       1.000000
       0.068000       0.025461       0.024935       0.000000       1.000000       1.000000       1.000000
       0.068667       0.025469       0.024942       0.000000       1.000000       1.000000       1.000000
       0.069333       0.025476       0.024950       0.000000       1.000000       1.000000       1.000000
       0.070000       0.025484       0.024957       0.000000       1.000000       1.000000       1.000000
       0.070667       0.025492       0.024965       0.000000       1.000000       1.000000       1.000000
       0.071333       0.025499       0.024972       0.000000       1.000000       1.000000       1.000000
       0.072000       0.025507       0.024980       0.000000       1.000000       1.000000       1.000000
       0.072667       0.025515       0.024988       0.000000       1.000000       1.000000       1.000000
       0.073333       0.025522       0.024995       0.000000       1.000000       1.000000       1.000000
       0.074000       0.025530       0.025003       0.000000       1.000000       1.000000       1.000000
       0.074667       0.025538       0.025010       0.000000       1.000000       1.000000       1.000000
       0.075333       0.025545       0.025018       0.000000       1.000000       1.000000       1.000000
       0.076000       0.025553       0.025025       0.000000       1.000000       1.000000       1.000000
       0.076667       0.025561       0.025033       0.000000       1.000000       1.000000       1.000000
       0.077333       0.025568       0.025040       0.000000       1.000000       1.000000       1.000000
       0.078000       0.025576       0.025048       0.000000       1.000000       1.000000       1.000000
       0.078667       0.025584       0.025055       0.000000       1.000000       1.000000       1.000000
       0.079333       0.025591       0.025063       0.000000       1.000000       1.000000       1.000000
       0.080000       0.025599       0.025071       0.000000       1.000000       1.000000       1.000000
       0.080667       0.025607       0.025078       0.000000       1.000000       1.000000       1.000000
       0.081333       0.025614       0.025086       0.000000       1.000000       1.000000       1.000000
       0.082000       0.025622       0.025093       0.000000       1.000000       1.000000       1.000000
       0.082667       0.025630       0.025101       0.000000       1.000000       1.000000       1.000000
       0.083333       0.025637       0.025109       0.000000       1.000000       1.000000       1.000000
       0.084000       0.025645       0.025116       0.000000       1.000000       1.000000       1.000000
       0.084667       0.025653       0.025124       0.000000       1.000000       1.000000       1.000000
       0.085333       0.025661       0.025131       0.000000       1.000000       1.000000       1.000000
       0.086000       0.025668       0.025139       0.000000       1.000000       1.000000       1.000000
       0.086667       0.025676       0.025147       0.000000       1.000000       1.000000       1.000000
       0.087333       0.025684       0.025154       0.000000       1.000000       1.000000       1.000000
       0.088000       0.025692       0.025162       0.000000       1.000000       1.000000       1.000000
       0.088667       0.025699       0.025169       0.000000       1.000000       1.000000       1.000000
       0.089333       0.025707       0.025177       0.000000       1.000000       1.000000       1.000000
       0.090000       0.025715       0.025185       0.000000       1.000000       1.000000       1.000000
       0.090667       0.025723       0.025192       0.000000       1.000000       1.000000       1.000000
       0.091333       0.025730       0.025200       0.000000       1.000000       1.000000       1.000000
       0.092000       0.025738       0.025208       0.000000       1.000000       1.000000       1.000000
       0.092667       0.025746       0.025215       0.000000       1.000000       1.000000       1.000000
       0.093333       0.025754       0.025223       0.000000       1.000000       1.000000       1.000000
       0.094000       0.025761       0.025230       0.000000       1.000000       1.000000       1.000000
       0.094667       0.025769       0.025238       0.000000       1.000000       1.000000       1.000000
       0.095333       0.025777       0.025246       0.000000       1.000000       1.000000       1.000000
       0.096000       0.025785       0.025253       0.000000       1.000000       1.000000       1.000000
       0.096667       0.025792       0.025261       0.000000       1.000000       1.000000       1.000000
       0.097333       0.025800       0.025269       0.000000       1.000000       1.000000       1.000000
       0.098000       0.025808       0.025276       0.000000       1.000000       1.000000       1.000000
       0.098667       0.025816       0.025284       0.000000       1.000000       1.000000       1.000000
       0.099333       0.025824       0.025292       0.000000       1.000000       1.000000       1.000000
       0.100000       0.025831       0.025299       0.000000       1.000000       1.000000       1.000000
       0.100667       0.025839       0.025307       0.000000       1.000000       1.000000       1.000000
       0.101333       0.025847       0.025315       0.000000       1.000000       1.000000       1.000000
       0.102000       0.025855       0.025323       0.000000       1.000000       1.000000       1.000000
       0.102667       0.025863       0.025330       0.000000       1.000000       1.000000       1.000000
       0.103333       0.025870       0.025338       0.000000       1.000000       1.000000       1.000000
       0.104000       0.025878       0.025346       0.000000       1.000000       1.000000       1.000000
       0.104667       0.025886       0.025353       0.000000       1.000000       1.000000       1.000000
       0.105333       0.025894       0.025361       0.000000       1.000000       1.000000       1.000000
       0.106000       0.025902       0.025369       0.000000       1.000000       1.000000       1.000000
       0.106667       0.025910       0.025376       0.000000       1.000000       1.000000       1.000000
       0.107333       0.025918       0.025384       0.000000       1.000000       1.000000       1.000000
       0.108000       0.025925       0.025392       0.000000       1.000000       1.000000       1.000000
       0.108667       0.025933       0.025400       0.000000       1.000000       1.000000       1.000000
       0.109333       0.025941       0.025407       0.000000       1.000000       1.000000       1.000000
       0.110000       0.025949       0.025415       0.000000       1.000000       1.000000       1.000000
       0.110667       0.025957       0.025423       0.000000       1.000000       1.000000       1.000000
       0.111333       0.025965       0.025431       0.000000       1.000000       1.000000       1.000000
       0.112000       0.025972       0.025438       0.000000       1.000000       1.000000       1.000000
       0.112667       0.025980       0.025446       0.000000       1.000000       1.000000       1.000000
       0.113333       0.025988       0.025454       0.000000       1.000000       1.000000       1.000000
       0.114000       0.025996       0.025462       0.000000       1.000000       1.000000       1.000000
       0.114667       0.026004       0.025469       0.000000       1.000000       1.000000       1.000000
       0.115333       0.026012       0.025477       0.000000       1.000000       1.000000       1.000000
       0.116000       0.026020       0.025485       0.000000       1.000000       1.000000       1.000000
       0.116667       0.026028       0.025493       0.000000       1.000000       1.000000       1.000000
       0.117333       0.026036       0.025500       0.000000       1.000000       1.000000       1.000000
       0.118000       0.026044       0.025508       0.000000       1.000000       1.000000       1.000000
       0.118667       0.026051       0.025516       0.000000       1.000000       1.000000       1.000000
       0.119333       0.026059       0.025524       0.000000       1.000000       1.000000       1.000000
       0.120000       0.026067       0.025532       0.000000       1.000000       1.000000       1.000000
       0.120667       0.026075       0.025539       0.000000       1.000000       1.000000       1.000000
       0.121333       0.026083       0.025547       0.000000       1.000000       1.000000       1.000000
       0.122000       0.026091       0.025555       0.000000       1.000000       1.000000       1.000000
       0.122667       0.026099       0.025563       0.000000       1.000000       1.000000       1.000000
       0.123333       0.026107       0.025571       0.000000       1.000000       1.000000       1.000000
       0.124000       0.026115       0.025578       0.000000       1.000000       1.000000       1.000000
       0.124667       0.026123       0.025586       0.000000       1.000000       1.000000       1.000000
