 #  energy  real  imag
  0.0000000E+00   1.878646      0.0000000E+00
  6.6666666E-04   1.878824      0.0000000E+00
  1.3333333E-03   1.879002      0.0000000E+00
  2.0000001E-03   1.879179      0.0000000E+00
  2.6666666E-03   1.879358      0.0000000E+00
  3.3333334E-03   1.879535      0.0000000E+00
  4.0000002E-03   1.879714      0.0000000E+00
  4.6666665E-03   1.879892      0.0000000E+00
  5.3333333E-03   1.880071      0.0000000E+00
  6.0000001E-03   1.880249      0.0000000E+00
  6.6666668E-03   1.880428      0.0000000E+00
  7.3333331E-03   1.880606      0.0000000E+00
  8.0000004E-03   1.880785      0.0000000E+00
  8.6666662E-03   1.880964      0.0000000E+00
  9.3333330E-03   1.881143      0.0000000E+00
  9.9999998E-03   1.881322      0.0000000E+00
  1.0666667E-02   1.881500      0.0000000E+00
  1.1333333E-02   1.881680      0.0000000E+00
  1.2000000E-02   1.881859      0.0000000E+00
  1.2666667E-02   1.882038      0.0000000E+00
  1.3333334E-02   1.882217      0.0000000E+00
  1.4000000E-02   1.882396      0.0000000E+00
  1.4666666E-02   1.882576      0.0000000E+00
  1.5333333E-02   1.882756      0.0000000E+00
  1.6000001E-02   1.882934      0.0000000E+00
  1.6666668E-02   1.883115      0.0000000E+00
  1.7333332E-02   1.883294      0.0000000E+00
  1.7999999E-02   1.883474      0.0000000E+00
  1.8666666E-02   1.883654      0.0000000E+00
  1.9333333E-02   1.883834      0.0000000E+00
  2.0000000E-02   1.884013      0.0000000E+00
  2.0666666E-02   1.884194      0.0000000E+00
  2.1333333E-02   1.884374      0.0000000E+00
  2.2000000E-02   1.884554      0.0000000E+00
  2.2666667E-02   1.884735      0.0000000E+00
  2.3333333E-02   1.884915      0.0000000E+00
  2.4000000E-02   1.885096      0.0000000E+00
  2.4666667E-02   1.885276      0.0000000E+00
  2.5333334E-02   1.885457      0.0000000E+00
  2.6000001E-02   1.885637      0.0000000E+00
  2.6666667E-02   1.885818      0.0000000E+00
  2.7333334E-02   1.885999      0.0000000E+00
  2.8000001E-02   1.886180      0.0000000E+00
  2.8666666E-02   1.886362      0.0000000E+00
  2.9333333E-02   1.886542      0.0000000E+00
  2.9999999E-02   1.886723      0.0000000E+00
  3.0666666E-02   1.886904      0.0000000E+00
  3.1333335E-02   1.887086      0.0000000E+00
  3.2000002E-02   1.887267      0.0000000E+00
  3.2666668E-02   1.887449      0.0000000E+00
  3.3333335E-02   1.887630      0.0000000E+00
  3.4000002E-02   1.887811      0.0000000E+00
  3.4666665E-02   1.887993      0.0000000E+00
  3.5333332E-02   1.888175      0.0000000E+00
  3.5999998E-02   1.888357      0.0000000E+00
  3.6666665E-02   1.888539      0.0000000E+00
  3.7333332E-02   1.888721      0.0000000E+00
  3.7999999E-02   1.888903      0.0000000E+00
  3.8666666E-02   1.889085      0.0000000E+00
  3.9333332E-02   1.889267      0.0000000E+00
  3.9999999E-02   1.889450      0.0000000E+00
  4.0666666E-02   1.889631      0.0000000E+00
  4.1333333E-02   1.889814      0.0000000E+00
  4.1999999E-02   1.889997      0.0000000E+00
  4.2666666E-02   1.890179      0.0000000E+00
  4.3333333E-02   1.890363      0.0000000E+00
  4.4000000E-02   1.890545      0.0000000E+00
  4.4666667E-02   1.890728      0.0000000E+00
  4.5333333E-02   1.890911      0.0000000E+00
  4.6000000E-02   1.891094      0.0000000E+00
  4.6666667E-02   1.891276      0.0000000E+00
  4.7333334E-02   1.891460      0.0000000E+00
  4.8000000E-02   1.891643      0.0000000E+00
  4.8666667E-02   1.891827      0.0000000E+00
  4.9333334E-02   1.892010      0.0000000E+00
  5.0000001E-02   1.892193      0.0000000E+00
  5.0666668E-02   1.892377      0.0000000E+00
  5.1333334E-02   1.892560      0.0000000E+00
  5.2000001E-02   1.892744      0.0000000E+00
  5.2666668E-02   1.892928      0.0000000E+00
  5.3333335E-02   1.893112      0.0000000E+00
  5.4000001E-02   1.893296      0.0000000E+00
  5.4666668E-02   1.893480      0.0000000E+00
  5.5333335E-02   1.893664      0.0000000E+00
  5.6000002E-02   1.893848      0.0000000E+00
  5.6666669E-02   1.894032      0.0000000E+00
  5.7333332E-02   1.894217      0.0000000E+00
  5.7999998E-02   1.894401      0.0000000E+00
  5.8666665E-02   1.894585      0.0000000E+00
  5.9333332E-02   1.894770      0.0000000E+00
  5.9999999E-02   1.894955      0.0000000E+00
  6.0666665E-02   1.895139      0.0000000E+00
  6.1333332E-02   1.895324      0.0000000E+00
  6.1999999E-02   1.895509      0.0000000E+00
  6.2666669E-02   1.895694      0.0000000E+00
  6.3333333E-02   1.895879      0.0000000E+00
  6.4000003E-02   1.896064      0.0000000E+00
  6.4666666E-02   1.896249      0.0000000E+00
  6.5333337E-02   1.896434      0.0000000E+00
  6.6000000E-02   1.896620      0.0000000E+00
  6.6666670E-02   1.896805      0.0000000E+00
  6.7333333E-02   1.896991      0.0000000E+00
  6.8000004E-02   1.897177      0.0000000E+00
  6.8666667E-02   1.897362      0.0000000E+00
  6.9333330E-02   1.897548      0.0000000E+00
  7.0000000E-02   1.897734      0.0000000E+00
  7.0666663E-02   1.897919      0.0000000E+00
  7.1333334E-02   1.898105      0.0000000E+00
  7.1999997E-02   1.898291      0.0000000E+00
  7.2666667E-02   1.898478      0.0000000E+00
  7.3333330E-02   1.898664      0.0000000E+00
  7.4000001E-02   1.898850      0.0000000E+00
  7.4666664E-02   1.899037      0.0000000E+00
  7.5333335E-02   1.899223      0.0000000E+00
  7.5999998E-02   1.899409      0.0000000E+00
  7.6666668E-02   1.899595      0.0000000E+00
  7.7333331E-02   1.899782      0.0000000E+00
  7.8000002E-02   1.899970      0.0000000E+00
  7.8666665E-02   1.900156      0.0000000E+00
  7.9333335E-02   1.900343      0.0000000E+00
  7.9999998E-02   1.900531      0.0000000E+00
  8.0666669E-02   1.900717      0.0000000E+00
  8.1333332E-02   1.900904      0.0000000E+00
  8.2000002E-02   1.901091      0.0000000E+00
  8.2666665E-02   1.901279      0.0000000E+00
  8.3333336E-02   1.901466      0.0000000E+00
  8.3999999E-02   1.901654      0.0000000E+00
  8.4666669E-02   1.901842      0.0000000E+00
  8.5333332E-02   1.902029      0.0000000E+00
  8.6000003E-02   1.902217      0.0000000E+00
  8.6666666E-02   1.902405      0.0000000E+00
  8.7333336E-02   1.902593      0.0000000E+00
  8.8000000E-02   1.902781      0.0000000E+00
  8.8666670E-02   1.902969      0.0000000E+00
  8.9333333E-02   1.903157      0.0000000E+00
  9.0000004E-02   1.903345      0.0000000E+00
  9.0666667E-02   1.903533      0.0000000E+00
  9.1333330E-02   1.903722      0.0000000E+00
  9.2000000E-02   1.903910      0.0000000E+00
  9.2666663E-02   1.904099      0.0000000E+00
  9.3333334E-02   1.904287      0.0000000E+00
  9.3999997E-02   1.904477      0.0000000E+00
  9.4666667E-02   1.904665      0.0000000E+00
  9.5333330E-02   1.904853      0.0000000E+00
  9.6000001E-02   1.905043      0.0000000E+00
  9.6666664E-02   1.905232      0.0000000E+00
  9.7333334E-02   1.905421      0.0000000E+00
  9.7999997E-02   1.905610      0.0000000E+00
  9.8666668E-02   1.905800      0.0000000E+00
  9.9333331E-02   1.905988      0.0000000E+00
  0.1000000       1.906178      0.0000000E+00
  0.1006667       1.906368      0.0000000E+00
  0.1013333       1.906557      0.0000000E+00
  0.1020000       1.906747      0.0000000E+00
  0.1026667       1.906936      0.0000000E+00
  0.1033333       1.907127      0.0000000E+00
  0.1040000       1.907316      0.0000000E+00
  0.1046667       1.907506      0.0000000E+00
  0.1053333       1.907696      0.0000000E+00
  0.1060000       1.907887      0.0000000E+00
  0.1066667       1.908077      0.0000000E+00
  0.1073333       1.908267      0.0000000E+00
  0.1080000       1.908458      0.0000000E+00
  0.1086667       1.908648      0.0000000E+00
  0.1093333       1.908839      0.0000000E+00
  0.1100000       1.909029      0.0000000E+00
  0.1106667       1.909220      0.0000000E+00
  0.1113333       1.909411      0.0000000E+00
  0.1120000       1.909602      0.0000000E+00
  0.1126667       1.909793      0.0000000E+00
  0.1133333       1.909983      0.0000000E+00
  0.1140000       1.910175      0.0000000E+00
  0.1146667       1.910366      0.0000000E+00
  0.1153333       1.910558      0.0000000E+00
  0.1160000       1.910749      0.0000000E+00
  0.1166667       1.910941      0.0000000E+00
  0.1173333       1.911132      0.0000000E+00
  0.1180000       1.911324      0.0000000E+00
  0.1186667       1.911515      0.0000000E+00
  0.1193333       1.911707      0.0000000E+00
  0.1200000       1.911899      0.0000000E+00
  0.1206667       1.912091      0.0000000E+00
  0.1213333       1.912283      0.0000000E+00
  0.1220000       1.912475      0.0000000E+00
  0.1226667       1.912668      0.0000000E+00
  0.1233333       1.912860      0.0000000E+00
  0.1240000       1.913052      0.0000000E+00
  0.1246667       1.913245      0.0000000E+00
  0.1253333       1.913437      0.0000000E+00
  0.1260000       1.913630      0.0000000E+00
  0.1266667       1.913823      0.0000000E+00
  0.1273333       1.914016      0.0000000E+00
  0.1280000       1.914208      0.0000000E+00
  0.1286667       1.914401      0.0000000E+00
  0.1293333       1.914595      0.0000000E+00
  0.1300000       1.914788      0.0000000E+00
  0.1306667       1.914981      0.0000000E+00
  0.1313333       1.915174      0.0000000E+00
  0.1320000       1.915367      0.0000000E+00
  0.1326667       1.915561      0.0000000E+00
  0.1333333       1.915755      0.0000000E+00
  0.1340000       1.915949      0.0000000E+00
  0.1346667       1.916142      0.0000000E+00
  0.1353333       1.916336      0.0000000E+00
  0.1360000       1.916530      0.0000000E+00
  0.1366667       1.916724      0.0000000E+00
  0.1373333       1.916918      0.0000000E+00
  0.1380000       1.917112      0.0000000E+00
  0.1386667       1.917306      0.0000000E+00
  0.1393333       1.917501      0.0000000E+00
  0.1400000       1.917695      0.0000000E+00
  0.1406667       1.917889      0.0000000E+00
  0.1413333       1.918084      0.0000000E+00
  0.1420000       1.918279      0.0000000E+00
  0.1426667       1.918473      0.0000000E+00
  0.1433333       1.918668      0.0000000E+00
  0.1440000       1.918863      0.0000000E+00
  0.1446667       1.919058      0.0000000E+00
  0.1453333       1.919254      0.0000000E+00
  0.1460000       1.919449      0.0000000E+00
  0.1466667       1.919644      0.0000000E+00
  0.1473333       1.919839      0.0000000E+00
  0.1480000       1.920035      0.0000000E+00
  0.1486667       1.920230      0.0000000E+00
  0.1493333       1.920426      0.0000000E+00
  0.1500000       1.920622      0.0000000E+00
  0.1506667       1.920817      0.0000000E+00
  0.1513333       1.921013      0.0000000E+00
  0.1520000       1.921209      0.0000000E+00
  0.1526667       1.921405      0.0000000E+00
  0.1533333       1.921602      0.0000000E+00
  0.1540000       1.921798      0.0000000E+00
  0.1546667       1.921993      0.0000000E+00
  0.1553333       1.922190      0.0000000E+00
  0.1560000       1.922387      0.0000000E+00
  0.1566667       1.922584      0.0000000E+00
  0.1573333       1.922780      0.0000000E+00
  0.1580000       1.922977      0.0000000E+00
  0.1586667       1.923174      0.0000000E+00
  0.1593333       1.923371      0.0000000E+00
  0.1600000       1.923568      0.0000000E+00
  0.1606667       1.923765      0.0000000E+00
  0.1613333       1.923962      0.0000000E+00
  0.1620000       1.924159      0.0000000E+00
  0.1626667       1.924357      0.0000000E+00
  0.1633333       1.924554      0.0000000E+00
  0.1640000       1.924752      0.0000000E+00
  0.1646667       1.924949      0.0000000E+00
  0.1653333       1.925147      0.0000000E+00
  0.1660000       1.925344      0.0000000E+00
  0.1666667       1.925542      0.0000000E+00
  0.1673333       1.925740      0.0000000E+00
  0.1680000       1.925938      0.0000000E+00
  0.1686667       1.926136      0.0000000E+00
  0.1693333       1.926334      0.0000000E+00
  0.1700000       1.926533      0.0000000E+00
  0.1706667       1.926731      0.0000000E+00
  0.1713333       1.926930      0.0000000E+00
  0.1720000       1.927128      0.0000000E+00
  0.1726667       1.927328      0.0000000E+00
  0.1733333       1.927526      0.0000000E+00
  0.1740000       1.927725      0.0000000E+00
  0.1746667       1.927924      0.0000000E+00
  0.1753333       1.928122      0.0000000E+00
  0.1760000       1.928322      0.0000000E+00
  0.1766667       1.928521      0.0000000E+00
  0.1773333       1.928720      0.0000000E+00
  0.1780000       1.928919      0.0000000E+00
  0.1786667       1.929119      0.0000000E+00
  0.1793333       1.929319      0.0000000E+00
  0.1800000       1.929518      0.0000000E+00
  0.1806667       1.929718      0.0000000E+00
  0.1813333       1.929917      0.0000000E+00
  0.1820000       1.930118      0.0000000E+00
  0.1826667       1.930317      0.0000000E+00
  0.1833333       1.930517      0.0000000E+00
  0.1840000       1.930718      0.0000000E+00
  0.1846667       1.930918      0.0000000E+00
  0.1853333       1.931118      0.0000000E+00
  0.1860000       1.931319      0.0000000E+00
  0.1866667       1.931519      0.0000000E+00
  0.1873333       1.931720      0.0000000E+00
  0.1880000       1.931920      0.0000000E+00
  0.1886667       1.932121      0.0000000E+00
  0.1893333       1.932322      0.0000000E+00
  0.1900000       1.932523      0.0000000E+00
  0.1906667       1.932724      0.0000000E+00
  0.1913333       1.932925      0.0000000E+00
  0.1920000       1.933126      0.0000000E+00
  0.1926667       1.933327      0.0000000E+00
  0.1933333       1.933529      0.0000000E+00
  0.1940000       1.933731      0.0000000E+00
  0.1946667       1.933933      0.0000000E+00
  0.1953333       1.934134      0.0000000E+00
  0.1960000       1.934336      0.0000000E+00
  0.1966667       1.934538      0.0000000E+00
  0.1973333       1.934740      0.0000000E+00
  0.1980000       1.934942      0.0000000E+00
  0.1986667       1.935144      0.0000000E+00
  0.1993333       1.935346      0.0000000E+00
  0.2000000       1.935549      0.0000000E+00
  0.2006667       1.935751      0.0000000E+00
  0.2013333       1.935953      0.0000000E+00
  0.2020000       1.936156      0.0000000E+00
  0.2026667       1.936359      0.0000000E+00
  0.2033333       1.936562      0.0000000E+00
  0.2040000       1.936764      0.0000000E+00
  0.2046667       1.936967      0.0000000E+00
  0.2053333       1.937170      0.0000000E+00
  0.2060000       1.937373      0.0000000E+00
  0.2066667       1.937576      0.0000000E+00
  0.2073333       1.937780      0.0000000E+00
  0.2080000       1.937983      0.0000000E+00
  0.2086667       1.938187      0.0000000E+00
  0.2093333       1.938390      0.0000000E+00
  0.2100000       1.938594      0.0000000E+00
  0.2106667       1.938798      0.0000000E+00
  0.2113333       1.939002      0.0000000E+00
  0.2120000       1.939206      0.0000000E+00
  0.2126667       1.939410      0.0000000E+00
  0.2133333       1.939613      0.0000000E+00
  0.2140000       1.939818      0.0000000E+00
  0.2146667       1.940022      0.0000000E+00
  0.2153333       1.940227      0.0000000E+00
  0.2160000       1.940431      0.0000000E+00
  0.2166667       1.940636      0.0000000E+00
  0.2173333       1.940840      0.0000000E+00
  0.2180000       1.941046      0.0000000E+00
  0.2186667       1.941250      0.0000000E+00
  0.2193333       1.941455      0.0000000E+00
  0.2200000       1.941660      0.0000000E+00
  0.2206667       1.941866      0.0000000E+00
  0.2213333       1.942070      0.0000000E+00
  0.2220000       1.942276      0.0000000E+00
  0.2226667       1.942481      0.0000000E+00
  0.2233333       1.942686      0.0000000E+00
  0.2240000       1.942892      0.0000000E+00
  0.2246667       1.943098      0.0000000E+00
  0.2253333       1.943304      0.0000000E+00
  0.2260000       1.943510      0.0000000E+00
  0.2266667       1.943716      0.0000000E+00
  0.2273333       1.943922      0.0000000E+00
  0.2280000       1.944128      0.0000000E+00
  0.2286667       1.944334      0.0000000E+00
  0.2293333       1.944541      0.0000000E+00
  0.2300000       1.944747      0.0000000E+00
  0.2306667       1.944953      0.0000000E+00
  0.2313333       1.945160      0.0000000E+00
  0.2320000       1.945367      0.0000000E+00
  0.2326667       1.945574      0.0000000E+00
  0.2333333       1.945781      0.0000000E+00
  0.2340000       1.945987      0.0000000E+00
  0.2346667       1.946195      0.0000000E+00
  0.2353333       1.946402      0.0000000E+00
  0.2360000       1.946609      0.0000000E+00
  0.2366667       1.946817      0.0000000E+00
  0.2373333       1.947024      0.0000000E+00
  0.2380000       1.947231      0.0000000E+00
  0.2386667       1.947439      0.0000000E+00
  0.2393333       1.947647      0.0000000E+00
  0.2400000       1.947855      0.0000000E+00
  0.2406667       1.948063      0.0000000E+00
  0.2413333       1.948271      0.0000000E+00
  0.2420000       1.948479      0.0000000E+00
  0.2426667       1.948687      0.0000000E+00
  0.2433333       1.948895      0.0000000E+00
  0.2440000       1.949104      0.0000000E+00
  0.2446667       1.949312      0.0000000E+00
  0.2453333       1.949521      0.0000000E+00
  0.2460000       1.949730      0.0000000E+00
  0.2466667       1.949939      0.0000000E+00
  0.2473333       1.950148      0.0000000E+00
  0.2480000       1.950356      0.0000000E+00
  0.2486667       1.950566      0.0000000E+00
  0.2493333       1.950775      0.0000000E+00
  0.2500000       1.950984      0.0000000E+00
  0.2506667       1.951194      0.0000000E+00
  0.2513333       1.951403      0.0000000E+00
  0.2520000       1.951612      0.0000000E+00
  0.2526667       1.951822      0.0000000E+00
  0.2533333       1.952032      0.0000000E+00
  0.2540000       1.952242      0.0000000E+00
  0.2546667       1.952451      0.0000000E+00
  0.2553333       1.952662      0.0000000E+00
  0.2560000       1.952871      0.0000000E+00
  0.2566667       1.953082      0.0000000E+00
  0.2573333       1.953292      0.0000000E+00
  0.2580000       1.953502      0.0000000E+00
  0.2586667       1.953714      0.0000000E+00
  0.2593333       1.953923      0.0000000E+00
  0.2600000       1.954134      0.0000000E+00
  0.2606667       1.954345      0.0000000E+00
  0.2613333       1.954556      0.0000000E+00
  0.2620000       1.954767      0.0000000E+00
  0.2626667       1.954978      0.0000000E+00
  0.2633333       1.955189      0.0000000E+00
  0.2640000       1.955401      0.0000000E+00
  0.2646667       1.955612      0.0000000E+00
  0.2653333       1.955823      0.0000000E+00
  0.2660000       1.956035      0.0000000E+00
  0.2666667       1.956246      0.0000000E+00
  0.2673333       1.956458      0.0000000E+00
  0.2680000       1.956671      0.0000000E+00
  0.2686667       1.956883      0.0000000E+00
  0.2693333       1.957095      0.0000000E+00
  0.2700000       1.957307      0.0000000E+00
  0.2706667       1.957519      0.0000000E+00
  0.2713333       1.957731      0.0000000E+00
  0.2720000       1.957943      0.0000000E+00
  0.2726667       1.958156      0.0000000E+00
  0.2733333       1.958369      0.0000000E+00
  0.2740000       1.958582      0.0000000E+00
  0.2746667       1.958794      0.0000000E+00
  0.2753333       1.959007      0.0000000E+00
  0.2760000       1.959220      0.0000000E+00
  0.2766667       1.959434      0.0000000E+00
  0.2773333       1.959647      0.0000000E+00
  0.2780000       1.959861      0.0000000E+00
  0.2786667       1.960073      0.0000000E+00
  0.2793333       1.960287      0.0000000E+00
  0.2800000       1.960501      0.0000000E+00
  0.2806667       1.960714      0.0000000E+00
  0.2813333       1.960928      0.0000000E+00
  0.2820000       1.961142      0.0000000E+00
  0.2826667       1.961356      0.0000000E+00
  0.2833333       1.961570      0.0000000E+00
  0.2840000       1.961784      0.0000000E+00
  0.2846667       1.961999      0.0000000E+00
  0.2853333       1.962213      0.0000000E+00
  0.2860000       1.962428      0.0000000E+00
  0.2866667       1.962642      0.0000000E+00
  0.2873333       1.962857      0.0000000E+00
  0.2880000       1.963072      0.0000000E+00
  0.2886667       1.963286      0.0000000E+00
